# Transmission coefficent of Debye medium
#      f [Hz]      |T| [-] 
 1.000000e+06 1.414279e-01
 7.005005e+06 3.389867e-01
 1.301001e+07 4.301057e-01
 1.901502e+07 4.872862e-01
 2.502002e+07 5.260647e-01
 3.102503e+07 5.535454e-01
 3.703003e+07 5.737349e-01
 4.303504e+07 5.890861e-01
 4.904004e+07 6.011598e-01
 5.504505e+07 6.109736e-01
 6.105005e+07 6.192033e-01
 6.705506e+07 6.263048e-01
 7.306006e+07 6.325904e-01
 7.906507e+07 6.382763e-01
 8.507007e+07 6.435142e-01
 9.107508e+07 6.484110e-01
 9.708008e+07 6.530428e-01
 1.030851e+08 6.574640e-01
 1.090901e+08 6.617136e-01
 1.150951e+08 6.658195e-01
 1.211001e+08 6.698017e-01
 1.271051e+08 6.736744e-01
 1.331101e+08 6.774478e-01
 1.391151e+08 6.811292e-01
 1.451201e+08 6.847235e-01
 1.511251e+08 6.882345e-01
 1.571301e+08 6.916645e-01
 1.631351e+08 6.950155e-01
 1.691401e+08 6.982886e-01
 1.751451e+08 7.014850e-01
 1.811502e+08 7.046055e-01
 1.871552e+08 7.076508e-01
 1.931602e+08 7.106216e-01
 1.991652e+08 7.135186e-01
 2.051702e+08 7.163427e-01
 2.111752e+08 7.190947e-01
 2.171802e+08 7.217754e-01
 2.231852e+08 7.243859e-01
 2.291902e+08 7.269273e-01
 2.351952e+08 7.294006e-01
 2.412002e+08 7.318070e-01
 2.472052e+08 7.341478e-01
 2.532102e+08 7.364243e-01
 2.592152e+08 7.386378e-01
 2.652202e+08 7.407896e-01
 2.712252e+08 7.428813e-01
 2.772302e+08 7.449142e-01
 2.832352e+08 7.468897e-01
 2.892402e+08 7.488093e-01
 2.952452e+08 7.506744e-01
 3.012503e+08 7.524864e-01
 3.072553e+08 7.542468e-01
 3.132603e+08 7.559571e-01
 3.192653e+08 7.576185e-01
 3.252703e+08 7.592325e-01
 3.312753e+08 7.608005e-01
 3.372803e+08 7.623238e-01
 3.432853e+08 7.638037e-01
 3.492903e+08 7.652415e-01
 3.552953e+08 7.666385e-01
 3.613003e+08 7.679959e-01
 3.673053e+08 7.693149e-01
 3.733103e+08 7.705968e-01
 3.793153e+08 7.718425e-01
 3.853203e+08 7.730533e-01
 3.913253e+08 7.742303e-01
 3.973303e+08 7.753745e-01
 4.033353e+08 7.764869e-01
 4.093403e+08 7.775686e-01
 4.153453e+08 7.786204e-01
 4.213504e+08 7.796434e-01
 4.273554e+08 7.806384e-01
 4.333604e+08 7.816063e-01
 4.393654e+08 7.825480e-01
 4.453704e+08 7.834642e-01
 4.513754e+08 7.843559e-01
 4.573804e+08 7.852238e-01
 4.633854e+08 7.860685e-01
 4.693904e+08 7.868909e-01
 4.753954e+08 7.876917e-01
 4.814004e+08 7.884714e-01
 4.874054e+08 7.892309e-01
 4.934104e+08 7.899706e-01
 4.994154e+08 7.906912e-01
 5.054204e+08 7.913934e-01
 5.114254e+08 7.920776e-01
 5.174304e+08 7.927444e-01
 5.234354e+08 7.933945e-01
 5.294404e+08 7.940281e-01
 5.354454e+08 7.946460e-01
 5.414505e+08 7.952485e-01
 5.474555e+08 7.958361e-01
 5.534605e+08 7.964093e-01
 5.594655e+08 7.969684e-01
 5.654705e+08 7.975140e-01
 5.714755e+08 7.980465e-01
 5.774805e+08 7.985661e-01
 5.834855e+08 7.990733e-01
 5.894905e+08 7.995685e-01
 5.954955e+08 8.000520e-01
 6.015005e+08 8.005241e-01
 6.075055e+08 8.009852e-01
 6.135105e+08 8.014356e-01
 6.195155e+08 8.018757e-01
 6.255205e+08 8.023056e-01
 6.315255e+08 8.027257e-01
 6.375305e+08 8.031363e-01
 6.435355e+08 8.035376e-01
 6.495405e+08 8.039300e-01
 6.555455e+08 8.043136e-01
 6.615506e+08 8.046887e-01
 6.675556e+08 8.050555e-01
 6.735606e+08 8.054143e-01
 6.795656e+08 8.057653e-01
 6.855706e+08 8.061086e-01
 6.915756e+08 8.064446e-01
 6.975806e+08 8.067734e-01
 7.035856e+08 8.070952e-01
 7.095906e+08 8.074102e-01
 7.155956e+08 8.077185e-01
 7.216006e+08 8.080204e-01
 7.276056e+08 8.083160e-01
 7.336106e+08 8.086055e-01
 7.396156e+08 8.088891e-01
 7.456206e+08 8.091668e-01
 7.516256e+08 8.094389e-01
 7.576306e+08 8.097055e-01
 7.636356e+08 8.099667e-01
 7.696406e+08 8.102227e-01
 7.756456e+08 8.104736e-01
 7.816507e+08 8.107195e-01
 7.876557e+08 8.109606e-01
 7.936607e+08 8.111970e-01
 7.996657e+08 8.114288e-01
 8.056707e+08 8.116561e-01
 8.116757e+08 8.118790e-01
 8.176807e+08 8.120976e-01
 8.236857e+08 8.123121e-01
 8.296907e+08 8.125225e-01
 8.356957e+08 8.127290e-01
 8.417007e+08 8.129316e-01
 8.477057e+08 8.131304e-01
 8.537107e+08 8.133256e-01
 8.597157e+08 8.135171e-01
 8.657207e+08 8.137051e-01
 8.717257e+08 8.138897e-01
 8.777307e+08 8.140710e-01
 8.837357e+08 8.142490e-01
 8.897407e+08 8.144238e-01
 8.957457e+08 8.145954e-01
 9.017508e+08 8.147640e-01
 9.077558e+08 8.149297e-01
 9.137608e+08 8.150924e-01
 9.197658e+08 8.152523e-01
 9.257708e+08 8.154094e-01
 9.317758e+08 8.155637e-01
 9.377808e+08 8.157155e-01
 9.437858e+08 8.158646e-01
 9.497908e+08 8.160111e-01
 9.557958e+08 8.161552e-01
 9.618008e+08 8.162969e-01
 9.678058e+08 8.164362e-01
 9.738108e+08 8.165731e-01
 9.798158e+08 8.167078e-01
 9.858208e+08 8.168402e-01
 9.918258e+08 8.169705e-01
 9.978308e+08 8.170986e-01
 1.003836e+09 8.172247e-01
 1.009841e+09 8.173487e-01
 1.015846e+09 8.174707e-01
 1.021851e+09 8.175907e-01
 1.027856e+09 8.177088e-01
 1.033861e+09 8.178251e-01
 1.039866e+09 8.179395e-01
 1.045871e+09 8.180521e-01
 1.051876e+09 8.181629e-01
 1.057881e+09 8.182720e-01
 1.063886e+09 8.183794e-01
 1.069891e+09 8.184851e-01
 1.075896e+09 8.185893e-01
 1.081901e+09 8.186918e-01
 1.087906e+09 8.187927e-01
 1.093911e+09 8.188922e-01
 1.099916e+09 8.189901e-01
 1.105921e+09 8.190865e-01
 1.111926e+09 8.191816e-01
 1.117931e+09 8.192751e-01
 1.123936e+09 8.193674e-01
 1.129941e+09 8.194582e-01
 1.135946e+09 8.195477e-01
 1.141951e+09 8.196359e-01
 1.147956e+09 8.197228e-01
 1.153961e+09 8.198085e-01
 1.159966e+09 8.198929e-01
 1.165971e+09 8.199761e-01
 1.171976e+09 8.200581e-01
 1.177981e+09 8.201390e-01
 1.183986e+09 8.202187e-01
 1.189991e+09 8.202973e-01
 1.195996e+09 8.203747e-01
 1.202001e+09 8.204511e-01
 1.208006e+09 8.205265e-01
 1.214011e+09 8.206007e-01
 1.220016e+09 8.206740e-01
 1.226021e+09 8.207462e-01
 1.232026e+09 8.208175e-01
 1.238031e+09 8.208878e-01
 1.244036e+09 8.209571e-01
 1.250041e+09 8.210255e-01
 1.256046e+09 8.210930e-01
 1.262051e+09 8.211595e-01
 1.268056e+09 8.212252e-01
 1.274061e+09 8.212900e-01
 1.280066e+09 8.213540e-01
 1.286071e+09 8.214171e-01
 1.292076e+09 8.214793e-01
 1.298081e+09 8.215408e-01
 1.304086e+09 8.216015e-01
 1.310091e+09 8.216613e-01
 1.316096e+09 8.217204e-01
 1.322101e+09 8.217788e-01
 1.328106e+09 8.218364e-01
 1.334111e+09 8.218932e-01
 1.340116e+09 8.219494e-01
 1.346121e+09 8.220048e-01
 1.352126e+09 8.220595e-01
 1.358131e+09 8.221135e-01
 1.364136e+09 8.221669e-01
 1.370141e+09 8.222196e-01
 1.376146e+09 8.222716e-01
 1.382151e+09 8.223230e-01
 1.388156e+09 8.223738e-01
 1.394161e+09 8.224239e-01
 1.400166e+09 8.224735e-01
 1.406171e+09 8.225224e-01
 1.412176e+09 8.225707e-01
 1.418181e+09 8.226185e-01
 1.424186e+09 8.226656e-01
 1.430191e+09 8.227122e-01
 1.436196e+09 8.227583e-01
 1.442201e+09 8.228038e-01
 1.448206e+09 8.228487e-01
 1.454211e+09 8.228932e-01
 1.460216e+09 8.229371e-01
 1.466221e+09 8.229805e-01
 1.472226e+09 8.230234e-01
 1.478231e+09 8.230658e-01
 1.484236e+09 8.231077e-01
 1.490241e+09 8.231491e-01
 1.496246e+09 8.231900e-01
 1.502251e+09 8.232305e-01
 1.508256e+09 8.232705e-01
 1.514261e+09 8.233100e-01
 1.520266e+09 8.233491e-01
 1.526271e+09 8.233878e-01
 1.532276e+09 8.234260e-01
 1.538281e+09 8.234638e-01
 1.544286e+09 8.235012e-01
 1.550291e+09 8.235381e-01
 1.556296e+09 8.235747e-01
 1.562301e+09 8.236108e-01
 1.568306e+09 8.236466e-01
 1.574311e+09 8.236819e-01
 1.580316e+09 8.237169e-01
 1.586321e+09 8.237515e-01
 1.592326e+09 8.237857e-01
 1.598331e+09 8.238195e-01
 1.604336e+09 8.238530e-01
 1.610341e+09 8.238861e-01
 1.616346e+09 8.239188e-01
 1.622351e+09 8.239512e-01
 1.628356e+09 8.239833e-01
 1.634361e+09 8.240150e-01
 1.640366e+09 8.240464e-01
 1.646371e+09 8.240775e-01
 1.652376e+09 8.241082e-01
 1.658381e+09 8.241386e-01
 1.664386e+09 8.241687e-01
 1.670391e+09 8.241985e-01
 1.676396e+09 8.242279e-01
 1.682401e+09 8.242571e-01
 1.688406e+09 8.242860e-01
 1.694411e+09 8.243145e-01
 1.700416e+09 8.243428e-01
 1.706421e+09 8.243708e-01
 1.712426e+09 8.243985e-01
 1.718431e+09 8.244259e-01
 1.724436e+09 8.244531e-01
 1.730441e+09 8.244799e-01
 1.736446e+09 8.245065e-01
 1.742451e+09 8.245329e-01
 1.748456e+09 8.245589e-01
 1.754461e+09 8.245848e-01
 1.760466e+09 8.246103e-01
 1.766471e+09 8.246356e-01
 1.772476e+09 8.246607e-01
 1.778481e+09 8.246855e-01
 1.784486e+09 8.247101e-01
 1.790491e+09 8.247344e-01
 1.796496e+09 8.247585e-01
 1.802502e+09 8.247824e-01
 1.808507e+09 8.248060e-01
 1.814512e+09 8.248294e-01
 1.820517e+09 8.248526e-01
 1.826522e+09 8.248755e-01
 1.832527e+09 8.248983e-01
 1.838532e+09 8.249208e-01
 1.844537e+09 8.249431e-01
 1.850542e+09 8.249652e-01
 1.856547e+09 8.249871e-01
 1.862552e+09 8.250088e-01
 1.868557e+09 8.250303e-01
 1.874562e+09 8.250515e-01
 1.880567e+09 8.250726e-01
 1.886572e+09 8.250935e-01
 1.892577e+09 8.251142e-01
 1.898582e+09 8.251347e-01
 1.904587e+09 8.251550e-01
 1.910592e+09 8.251751e-01
 1.916597e+09 8.251951e-01
 1.922602e+09 8.252149e-01
 1.928607e+09 8.252344e-01
 1.934612e+09 8.252538e-01
 1.940617e+09 8.252731e-01
 1.946622e+09 8.252921e-01
 1.952627e+09 8.253110e-01
 1.958632e+09 8.253297e-01
 1.964637e+09 8.253483e-01
 1.970642e+09 8.253667e-01
 1.976647e+09 8.253849e-01
 1.982652e+09 8.254030e-01
 1.988657e+09 8.254209e-01
 1.994662e+09 8.254386e-01
 2.000667e+09 8.254562e-01
 2.006672e+09 8.254736e-01
 2.012677e+09 8.254909e-01
 2.018682e+09 8.255080e-01
 2.024687e+09 8.255250e-01
 2.030692e+09 8.255419e-01
 2.036697e+09 8.255586e-01
 2.042702e+09 8.255751e-01
 2.048707e+09 8.255915e-01
 2.054712e+09 8.256078e-01
 2.060717e+09 8.256239e-01
 2.066722e+09 8.256399e-01
 2.072727e+09 8.256557e-01
 2.078732e+09 8.256715e-01
 2.084737e+09 8.256871e-01
 2.090742e+09 8.257025e-01
 2.096747e+09 8.257178e-01
 2.102752e+09 8.257330e-01
 2.108757e+09 8.257481e-01
 2.114762e+09 8.257631e-01
 2.120767e+09 8.257779e-01
 2.126772e+09 8.257926e-01
 2.132777e+09 8.258071e-01
 2.138782e+09 8.258216e-01
 2.144787e+09 8.258359e-01
 2.150792e+09 8.258502e-01
 2.156797e+09 8.258643e-01
 2.162802e+09 8.258783e-01
 2.168807e+09 8.258921e-01
 2.174812e+09 8.259059e-01
 2.180817e+09 8.259196e-01
 2.186822e+09 8.259331e-01
 2.192827e+09 8.259465e-01
 2.198832e+09 8.259599e-01
 2.204837e+09 8.259731e-01
 2.210842e+09 8.259862e-01
 2.216847e+09 8.259992e-01
 2.222852e+09 8.260121e-01
 2.228857e+09 8.260249e-01
 2.234862e+09 8.260376e-01
 2.240867e+09 8.260502e-01
 2.246872e+09 8.260627e-01
 2.252877e+09 8.260751e-01
 2.258882e+09 8.260874e-01
 2.264887e+09 8.260997e-01
 2.270892e+09 8.261118e-01
 2.276897e+09 8.261238e-01
 2.282902e+09 8.261357e-01
 2.288907e+09 8.261476e-01
 2.294912e+09 8.261593e-01
 2.300917e+09 8.261710e-01
 2.306922e+09 8.261826e-01
 2.312927e+09 8.261940e-01
 2.318932e+09 8.262054e-01
 2.324937e+09 8.262167e-01
 2.330942e+09 8.262280e-01
 2.336947e+09 8.262391e-01
 2.342952e+09 8.262501e-01
 2.348957e+09 8.262611e-01
 2.354962e+09 8.262720e-01
 2.360967e+09 8.262828e-01
 2.366972e+09 8.262935e-01
 2.372977e+09 8.263042e-01
 2.378982e+09 8.263147e-01
 2.384987e+09 8.263252e-01
 2.390992e+09 8.263356e-01
 2.396997e+09 8.263460e-01
 2.403002e+09 8.263562e-01
 2.409007e+09 8.263664e-01
 2.415012e+09 8.263765e-01
 2.421017e+09 8.263866e-01
 2.427022e+09 8.263965e-01
 2.433027e+09 8.264064e-01
 2.439032e+09 8.264162e-01
 2.445037e+09 8.264260e-01
 2.451042e+09 8.264356e-01
 2.457047e+09 8.264452e-01
 2.463052e+09 8.264548e-01
 2.469057e+09 8.264642e-01
 2.475062e+09 8.264736e-01
 2.481067e+09 8.264830e-01
 2.487072e+09 8.264922e-01
 2.493077e+09 8.265014e-01
 2.499082e+09 8.265106e-01
 2.505087e+09 8.265197e-01
 2.511092e+09 8.265287e-01
 2.517097e+09 8.265376e-01
 2.523102e+09 8.265465e-01
 2.529107e+09 8.265553e-01
 2.535112e+09 8.265641e-01
 2.541117e+09 8.265727e-01
 2.547122e+09 8.265814e-01
 2.553127e+09 8.265900e-01
 2.559132e+09 8.265985e-01
 2.565137e+09 8.266069e-01
 2.571142e+09 8.266153e-01
 2.577147e+09 8.266237e-01
 2.583152e+09 8.266320e-01
 2.589157e+09 8.266402e-01
 2.595162e+09 8.266483e-01
 2.601167e+09 8.266565e-01
 2.607172e+09 8.266645e-01
 2.613177e+09 8.266725e-01
 2.619182e+09 8.266805e-01
 2.625187e+09 8.266884e-01
 2.631192e+09 8.266962e-01
 2.637197e+09 8.267040e-01
 2.643202e+09 8.267117e-01
 2.649207e+09 8.267194e-01
 2.655212e+09 8.267271e-01
 2.661217e+09 8.267347e-01
 2.667222e+09 8.267422e-01
 2.673227e+09 8.267497e-01
 2.679232e+09 8.267571e-01
 2.685237e+09 8.267645e-01
 2.691242e+09 8.267718e-01
 2.697247e+09 8.267791e-01
 2.703252e+09 8.267864e-01
 2.709257e+09 8.267935e-01
 2.715262e+09 8.268007e-01
 2.721267e+09 8.268078e-01
 2.727272e+09 8.268148e-01
 2.733277e+09 8.268219e-01
 2.739282e+09 8.268288e-01
 2.745287e+09 8.268357e-01
 2.751292e+09 8.268426e-01
 2.757297e+09 8.268494e-01
 2.763302e+09 8.268562e-01
 2.769307e+09 8.268630e-01
 2.775312e+09 8.268697e-01
 2.781317e+09 8.268763e-01
 2.787322e+09 8.268829e-01
 2.793327e+09 8.268895e-01
 2.799332e+09 8.268960e-01
 2.805337e+09 8.269025e-01
 2.811342e+09 8.269090e-01
 2.817347e+09 8.269154e-01
 2.823352e+09 8.269217e-01
 2.829357e+09 8.269280e-01
 2.835362e+09 8.269343e-01
 2.841367e+09 8.269406e-01
 2.847372e+09 8.269468e-01
 2.853377e+09 8.269530e-01
 2.859382e+09 8.269591e-01
 2.865387e+09 8.269652e-01
 2.871392e+09 8.269712e-01
 2.877397e+09 8.269772e-01
 2.883402e+09 8.269832e-01
 2.889407e+09 8.269892e-01
 2.895412e+09 8.269951e-01
 2.901417e+09 8.270009e-01
 2.907422e+09 8.270068e-01
 2.913427e+09 8.270126e-01
 2.919432e+09 8.270183e-01
 2.925437e+09 8.270241e-01
 2.931442e+09 8.270298e-01
 2.937447e+09 8.270354e-01
 2.943452e+09 8.270410e-01
 2.949457e+09 8.270466e-01
 2.955462e+09 8.270522e-01
 2.961467e+09 8.270577e-01
 2.967472e+09 8.270632e-01
 2.973477e+09 8.270687e-01
 2.979482e+09 8.270741e-01
 2.985487e+09 8.270795e-01
 2.991492e+09 8.270848e-01
 2.997497e+09 8.270902e-01
 3.003503e+09 8.270955e-01
 3.009508e+09 8.271007e-01
 3.015513e+09 8.271060e-01
 3.021518e+09 8.271112e-01
 3.027523e+09 8.271163e-01
 3.033528e+09 8.271215e-01
 3.039533e+09 8.271266e-01
 3.045538e+09 8.271317e-01
 3.051543e+09 8.271367e-01
 3.057548e+09 8.271418e-01
 3.063553e+09 8.271468e-01
 3.069558e+09 8.271517e-01
 3.075563e+09 8.271567e-01
 3.081568e+09 8.271616e-01
 3.087573e+09 8.271664e-01
 3.093578e+09 8.271713e-01
 3.099583e+09 8.271761e-01
 3.105588e+09 8.271809e-01
 3.111593e+09 8.271857e-01
 3.117598e+09 8.271904e-01
 3.123603e+09 8.271951e-01
 3.129608e+09 8.271998e-01
 3.135613e+09 8.272045e-01
 3.141618e+09 8.272091e-01
 3.147623e+09 8.272137e-01
 3.153628e+09 8.272183e-01
 3.159633e+09 8.272229e-01
 3.165638e+09 8.272274e-01
 3.171643e+09 8.272319e-01
 3.177648e+09 8.272364e-01
 3.183653e+09 8.272408e-01
 3.189658e+09 8.272453e-01
 3.195663e+09 8.272497e-01
 3.201668e+09 8.272541e-01
 3.207673e+09 8.272584e-01
 3.213678e+09 8.272628e-01
 3.219683e+09 8.272671e-01
 3.225688e+09 8.272713e-01
 3.231693e+09 8.272756e-01
 3.237698e+09 8.272798e-01
 3.243703e+09 8.272841e-01
 3.249708e+09 8.272882e-01
 3.255713e+09 8.272924e-01
 3.261718e+09 8.272966e-01
 3.267723e+09 8.273007e-01
 3.273728e+09 8.273048e-01
 3.279733e+09 8.273089e-01
 3.285738e+09 8.273129e-01
 3.291743e+09 8.273170e-01
 3.297748e+09 8.273210e-01
 3.303753e+09 8.273250e-01
 3.309758e+09 8.273289e-01
 3.315763e+09 8.273329e-01
 3.321768e+09 8.273368e-01
 3.327773e+09 8.273407e-01
 3.333778e+09 8.273446e-01
 3.339783e+09 8.273485e-01
 3.345788e+09 8.273523e-01
 3.351793e+09 8.273561e-01
 3.357798e+09 8.273599e-01
 3.363803e+09 8.273637e-01
 3.369808e+09 8.273675e-01
 3.375813e+09 8.273712e-01
 3.381818e+09 8.273749e-01
 3.387823e+09 8.273786e-01
 3.393828e+09 8.273823e-01
 3.399833e+09 8.273860e-01
 3.405838e+09 8.273896e-01
 3.411843e+09 8.273932e-01
 3.417848e+09 8.273969e-01
 3.423853e+09 8.274004e-01
 3.429858e+09 8.274040e-01
 3.435863e+09 8.274076e-01
 3.441868e+09 8.274111e-01
 3.447873e+09 8.274146e-01
 3.453878e+09 8.274181e-01
 3.459883e+09 8.274216e-01
 3.465888e+09 8.274250e-01
 3.471893e+09 8.274285e-01
 3.477898e+09 8.274319e-01
 3.483903e+09 8.274353e-01
 3.489908e+09 8.274387e-01
 3.495913e+09 8.274421e-01
 3.501918e+09 8.274454e-01
 3.507923e+09 8.274488e-01
 3.513928e+09 8.274521e-01
 3.519933e+09 8.274554e-01
 3.525938e+09 8.274587e-01
 3.531943e+09 8.274620e-01
 3.537948e+09 8.274652e-01
 3.543953e+09 8.274684e-01
 3.549958e+09 8.274717e-01
 3.555963e+09 8.274749e-01
 3.561968e+09 8.274781e-01
 3.567973e+09 8.274812e-01
 3.573978e+09 8.274844e-01
 3.579983e+09 8.274875e-01
 3.585988e+09 8.274907e-01
 3.591993e+09 8.274938e-01
 3.597998e+09 8.274969e-01
 3.604003e+09 8.275000e-01
 3.610008e+09 8.275030e-01
 3.616013e+09 8.275061e-01
 3.622018e+09 8.275091e-01
 3.628023e+09 8.275121e-01
 3.634028e+09 8.275151e-01
 3.640033e+09 8.275181e-01
 3.646038e+09 8.275211e-01
 3.652043e+09 8.275240e-01
 3.658048e+09 8.275270e-01
 3.664053e+09 8.275299e-01
 3.670058e+09 8.275328e-01
 3.676063e+09 8.275357e-01
 3.682068e+09 8.275386e-01
 3.688073e+09 8.275415e-01
 3.694078e+09 8.275444e-01
 3.700083e+09 8.275472e-01
 3.706088e+09 8.275501e-01
 3.712093e+09 8.275529e-01
 3.718098e+09 8.275557e-01
 3.724103e+09 8.275585e-01
 3.730108e+09 8.275613e-01
 3.736113e+09 8.275640e-01
 3.742118e+09 8.275668e-01
 3.748123e+09 8.275695e-01
 3.754128e+09 8.275722e-01
 3.760133e+09 8.275750e-01
 3.766138e+09 8.275777e-01
 3.772143e+09 8.275803e-01
 3.778148e+09 8.275830e-01
 3.784153e+09 8.275857e-01
 3.790158e+09 8.275883e-01
 3.796163e+09 8.275910e-01
 3.802168e+09 8.275936e-01
 3.808173e+09 8.275962e-01
 3.814178e+09 8.275988e-01
 3.820183e+09 8.276014e-01
 3.826188e+09 8.276040e-01
 3.832193e+09 8.276065e-01
 3.838198e+09 8.276091e-01
 3.844203e+09 8.276116e-01
 3.850208e+09 8.276142e-01
 3.856213e+09 8.276167e-01
 3.862218e+09 8.276192e-01
 3.868223e+09 8.276217e-01
 3.874228e+09 8.276242e-01
 3.880233e+09 8.276266e-01
 3.886238e+09 8.276291e-01
 3.892243e+09 8.276315e-01
 3.898248e+09 8.276340e-01
 3.904253e+09 8.276364e-01
 3.910258e+09 8.276388e-01
 3.916263e+09 8.276412e-01
 3.922268e+09 8.276436e-01
 3.928273e+09 8.276460e-01
 3.934278e+09 8.276484e-01
 3.940283e+09 8.276507e-01
 3.946288e+09 8.276531e-01
 3.952293e+09 8.276554e-01
 3.958298e+09 8.276578e-01
 3.964303e+09 8.276601e-01
 3.970308e+09 8.276624e-01
 3.976313e+09 8.276647e-01
 3.982318e+09 8.276670e-01
 3.988323e+09 8.276692e-01
 3.994328e+09 8.276715e-01
 4.000333e+09 8.276738e-01
 4.006338e+09 8.276760e-01
 4.012343e+09 8.276782e-01
 4.018348e+09 8.276805e-01
 4.024353e+09 8.276827e-01
 4.030358e+09 8.276849e-01
 4.036363e+09 8.276871e-01
 4.042368e+09 8.276893e-01
 4.048373e+09 8.276915e-01
 4.054378e+09 8.276936e-01
 4.060383e+09 8.276958e-01
 4.066388e+09 8.276979e-01
 4.072393e+09 8.277001e-01
 4.078398e+09 8.277022e-01
 4.084403e+09 8.277043e-01
 4.090408e+09 8.277064e-01
 4.096413e+09 8.277085e-01
 4.102418e+09 8.277106e-01
 4.108423e+09 8.277127e-01
 4.114428e+09 8.277148e-01
 4.120433e+09 8.277169e-01
 4.126438e+09 8.277189e-01
 4.132443e+09 8.277210e-01
 4.138448e+09 8.277230e-01
 4.144453e+09 8.277250e-01
 4.150458e+09 8.277270e-01
 4.156463e+09 8.277291e-01
 4.162468e+09 8.277311e-01
 4.168473e+09 8.277331e-01
 4.174478e+09 8.277350e-01
 4.180483e+09 8.277370e-01
 4.186488e+09 8.277390e-01
 4.192493e+09 8.277410e-01
 4.198498e+09 8.277429e-01
 4.204504e+09 8.277449e-01
 4.210509e+09 8.277468e-01
 4.216514e+09 8.277487e-01
 4.222519e+09 8.277506e-01
 4.228524e+09 8.277526e-01
 4.234529e+09 8.277545e-01
 4.240534e+09 8.277564e-01
 4.246539e+09 8.277582e-01
 4.252544e+09 8.277601e-01
 4.258549e+09 8.277620e-01
 4.264554e+09 8.277639e-01
 4.270559e+09 8.277657e-01
 4.276564e+09 8.277676e-01
 4.282569e+09 8.277694e-01
 4.288574e+09 8.277712e-01
 4.294579e+09 8.277731e-01
 4.300584e+09 8.277749e-01
 4.306589e+09 8.277767e-01
 4.312594e+09 8.277785e-01
 4.318599e+09 8.277803e-01
 4.324604e+09 8.277821e-01
 4.330609e+09 8.277839e-01
 4.336614e+09 8.277856e-01
 4.342619e+09 8.277874e-01
 4.348624e+09 8.277892e-01
 4.354629e+09 8.277909e-01
 4.360634e+09 8.277926e-01
 4.366639e+09 8.277944e-01
 4.372644e+09 8.277961e-01
 4.378649e+09 8.277978e-01
 4.384654e+09 8.277996e-01
 4.390659e+09 8.278013e-01
 4.396664e+09 8.278030e-01
 4.402669e+09 8.278047e-01
 4.408674e+09 8.278063e-01
 4.414679e+09 8.278080e-01
 4.420684e+09 8.278097e-01
 4.426689e+09 8.278114e-01
