# (13,2,2)->(0.013,0.002,0.002)
#         f (Hz)     Re(Ex) (V/m)     Im(Ex) (V/m)     Re(Ey) (V/m)     Im(Ey) (V/m)     Re(Ez) (V/m)     Im(Ez) (V/m)     Re(Hx) (V/m)     Im(Hx) (V/m)     Re(Hy) (V/m)     Im(Hy) (V/m)     Re(Hz) (V/m)     Im(Hz) (V/m)
  1.00000000e+08   7.12248293e-05  -4.96879420e-06  -1.26437271e-05  -3.76698085e-06  -1.26437271e-05  -3.76698085e-06   0.00000000e+00   0.00000000e+00   7.59416141e-10  -6.12151996e-10  -7.59416141e-10   6.12151996e-10 
  6.06779680e+08   6.13841039e-05  -2.74009763e-05  -2.09922437e-05  -2.07652811e-05  -2.09922437e-05  -2.07652811e-05   0.00000000e+00   0.00000000e+00   3.80088272e-09  -5.05482989e-09  -3.80088272e-09   5.05482989e-09 
  1.11355936e+09   4.19863863e-05  -3.97398107e-05  -3.80168967e-05  -3.00079937e-05  -3.80168967e-05  -3.00079937e-05   0.00000000e+00   0.00000000e+00   8.88901130e-09  -1.44116310e-08  -8.88901130e-09   1.44116310e-08 
  1.62033904e+09   2.13996391e-05  -3.93894625e-05  -5.76568345e-05  -2.91992292e-05  -5.76568345e-05  -2.91992292e-05   0.00000000e+00   0.00000000e+00   1.16932179e-08  -2.98943768e-08  -1.16932179e-08   2.98943768e-08 
  2.12711872e+09   6.49947106e-06  -2.95935097e-05  -7.48990205e-05  -2.01929379e-05  -7.48990205e-05  -2.01929379e-05   0.00000000e+00   0.00000000e+00   8.44886383e-09  -4.97434804e-08  -8.44886383e-09   4.97434804e-08 
  2.63389840e+09  -3.70259926e-07  -1.59216488e-05  -8.79229046e-05  -6.42729674e-06  -8.79229046e-05  -6.42729674e-06   0.00000000e+00   0.00000000e+00  -2.52420040e-09  -7.08455730e-08   2.52420040e-09   7.08455730e-08 
  3.14067808e+09  -5.24149414e-07  -2.38544521e-06  -9.74009236e-05   9.87751810e-06  -9.74009236e-05   9.87751810e-06   0.00000000e+00   0.00000000e+00  -2.11682636e-08  -9.05520139e-08   2.11682636e-08   9.05520139e-08 
  3.64745776e+09   4.09841505e-06   9.75794683e-06  -1.04241510e-04   2.85521619e-05  -1.04241510e-04   2.85521619e-05   0.00000000e+00   0.00000000e+00  -4.70791797e-08  -1.07207001e-07   4.70791797e-08   1.07207001e-07 
  4.15423744e+09   1.29821119e-05   2.04250173e-05  -1.08040549e-04   5.02931471e-05  -1.08040549e-04   5.02931471e-05  -0.00000000e+00   0.00000000e+00  -8.03982090e-08  -1.19302683e-07   8.03982090e-08   1.19302683e-07 
  4.66101712e+09   2.66494189e-05   2.86874638e-05  -1.07260406e-04   7.51252592e-05  -1.07260406e-04   7.51252592e-05  -0.00000000e+00   0.00000000e+00  -1.21418381e-07  -1.24400245e-07   1.21418381e-07   1.24400245e-07 
  5.16779680e+09   4.50033440e-05   3.23794848e-05  -1.00318211e-04   1.01927573e-04  -1.00318211e-04   1.01927573e-04  -0.00000000e+00   0.00000000e+00  -1.69397154e-07  -1.18943028e-07   1.69397154e-07   1.18943028e-07 
  5.67457648e+09   6.64099134e-05   2.92561563e-05  -8.62533416e-05   1.28931060e-04  -8.62533416e-05   1.28931060e-04  -0.00000000e+00   0.00000000e+00  -2.21632334e-07  -9.91289681e-08   2.21632334e-07   9.91289681e-08 
  6.18135616e+09   8.81986343e-05   1.81563701e-05  -6.46428889e-05   1.54166337e-04  -6.46428889e-05   1.54166337e-04  -0.00000000e+00   0.00000000e+00  -2.73413292e-07  -6.21947436e-08   2.73413292e-07   6.21947436e-08 
  6.68813584e+09   1.07636653e-04  -8.61972921e-07  -3.54877993e-05   1.75370427e-04  -3.54877993e-05   1.75370427e-04  -0.00000000e+00   0.00000000e+00  -3.18738898e-07  -7.43001038e-09   3.18738898e-07   7.43001038e-09 
  7.19491552e+09   1.22311991e-04  -2.69984066e-05   3.63828320e-07   1.89895669e-04   3.63828320e-07   1.89895669e-04  -0.00000000e+00   0.00000000e+00  -3.51417299e-07   6.33368202e-08   3.51417299e-07  -6.33368202e-08 
  7.70169520e+09   1.29998181e-04  -5.88597977e-05   4.06782092e-05   1.95315064e-04   4.06782092e-05   1.95315064e-04   0.00000000e+00  -0.00000000e+00  -3.66303510e-07   1.45810574e-07   3.66303510e-07  -1.45810574e-07 
  8.20847488e+09   1.28818385e-04  -9.41728576e-05   8.20704954e-05   1.90519015e-04   8.20704954e-05   1.90519015e-04   0.00000000e+00  -0.00000000e+00  -3.60471688e-07   2.33961018e-07   3.60471688e-07  -2.33961018e-07 
  8.71525456e+09   1.17969226e-04  -1.29838867e-04   1.21195204e-04   1.76297908e-04   1.21195204e-04   1.76297908e-04   0.00000000e+00  -0.00000000e+00  -3.33869650e-07   3.21455730e-07   3.33869650e-07  -3.21455730e-07 
  9.22203424e+09   9.82531637e-05  -1.62823650e-04   1.56019669e-04   1.54743757e-04   1.56019669e-04   1.54743757e-04   0.00000000e+00  -0.00000000e+00  -2.88918812e-07   4.03360588e-07   2.88918812e-07  -4.03360588e-07 
  9.72881392e+09   7.16027789e-05  -1.91292915e-04   1.86150937e-04   1.27914813e-04   1.86150937e-04   1.27914813e-04   0.00000000e+00  -0.00000000e+00  -2.28997081e-07   4.77229207e-07   2.28997081e-07  -4.77229207e-07 
  1.02355936e+10   3.98172269e-05  -2.14912608e-04   2.12081461e-04   9.68445675e-05   2.12081461e-04   9.68445675e-05   0.00000000e+00  -0.00000000e+00  -1.56543280e-07   5.42848454e-07   1.56543280e-07  -5.42848454e-07 
  1.07423733e+10   3.61951106e-06  -2.34015592e-04   2.34146864e-04   6.14963137e-05   2.34146864e-04   6.14963137e-05   0.00000000e+00  -0.00000000e+00  -7.18853173e-08   6.00753651e-07   7.18853173e-08  -6.00753651e-07 
  1.12491530e+10  -3.71952228e-05  -2.48476717e-04   2.51965888e-04   2.13242729e-05   2.51965888e-04   2.13242729e-05   0.00000000e+00   0.00000000e+00   2.65812172e-08   6.50412346e-07  -2.65812172e-08  -6.50412346e-07 
  1.17559326e+10  -8.29011842e-05  -2.57309497e-04   2.64384231e-04  -2.42113147e-05   2.64384231e-04  -2.42113147e-05   0.00000000e+00   0.00000000e+00   1.41136184e-07   6.89070760e-07  -1.41136184e-07  -6.89070760e-07 
  1.22627123e+10  -1.33247522e-04  -2.59066146e-04   2.69487820e-04  -7.53181666e-05   2.69487820e-04  -7.53181666e-05   0.00000000e+00   0.00000000e+00   2.73170770e-07   7.11638506e-07  -2.73170770e-07  -7.11638506e-07 
  1.27694920e+10  -1.87527839e-04  -2.52280734e-04   2.64590752e-04  -1.31396751e-04   2.64590752e-04  -1.31396751e-04   0.00000000e+00   0.00000000e+00   4.21937642e-07   7.11378959e-07  -4.21937642e-07  -7.11378959e-07 
  1.32762717e+10  -2.44790281e-04  -2.35414424e-04   2.46621610e-04  -1.90324412e-04   2.46621610e-04  -1.90324412e-04   0.00000000e+00   0.00000000e+00   5.83820224e-07   6.81048675e-07  -5.83820224e-07  -6.81048675e-07 
  1.37830514e+10  -3.03582405e-04  -2.06642871e-04   2.13206309e-04  -2.48054304e-04   2.13206309e-04  -2.48054304e-04   0.00000000e+00   0.00000000e+00   7.52171331e-07   6.14265389e-07  -7.52171331e-07  -6.14265389e-07 
  1.42898310e+10  -3.61439917e-04  -1.64170371e-04   1.63963748e-04  -2.99174077e-04   1.63963748e-04  -2.99174077e-04   0.00000000e+00   0.00000000e+00   9.17882971e-07   5.06876859e-07  -9.17882971e-07  -5.06876859e-07 
  1.47966107e+10  -4.14878625e-04  -1.07050313e-04   1.01091784e-04  -3.38326849e-04   1.01091784e-04  -3.38326849e-04   0.00000000e+00   0.00000000e+00   1.07069968e-06   3.57831510e-07  -1.07069968e-06  -3.57831510e-07 
  1.53033904e+10  -4.60186653e-04  -3.57166064e-05   2.88256269e-05  -3.61597980e-04   2.88256269e-05  -3.61597980e-04   0.00000000e+00   0.00000000e+00   1.20078448e-06   1.69006185e-07  -1.20078448e-06  -1.69006185e-07 
  1.58101701e+10  -4.94317093e-04   4.84269294e-05  -4.76963542e-05  -3.67080356e-04  -4.76963542e-05  -3.67080356e-04   0.00000000e+00   0.00000000e+00   1.29964906e-06  -5.59534392e-08  -1.29964906e-06   5.59534392e-08 
  1.63169498e+10  -5.14934072e-04   1.43966754e-04  -1.23304868e-04  -3.54696356e-04  -1.23304868e-04  -3.54696356e-04   0.00000000e+00   0.00000000e+00   1.35979667e-06  -3.12973242e-07  -1.35979667e-06   3.12973242e-07 
  1.68237294e+10  -5.19557216e-04   2.49941542e-04  -1.93202708e-04  -3.25978122e-04  -1.93202708e-04  -3.25978122e-04   0.00000000e+00   0.00000000e+00   1.37333893e-06  -5.97961787e-07  -1.37333893e-06   5.97961787e-07 
  1.73305091e+10  -5.04661817e-04   3.65252985e-04  -2.53444508e-04  -2.84095266e-04  -2.53444508e-04  -2.84095266e-04   0.00000000e+00   0.00000000e+00   1.33059370e-06  -9.05719560e-07  -1.33059370e-06   9.05719560e-07 
  1.78372888e+10  -4.65626741e-04   4.87498532e-04  -3.01889610e-04  -2.33613013e-04  -3.01889610e-04  -2.33613013e-04   0.00000000e+00   0.00000000e+00   1.21982828e-06  -1.22763333e-06  -1.21982828e-06   1.22763333e-06 
  1.83440685e+10  -3.97518597e-04   6.12091913e-04  -3.39125225e-04  -1.79300536e-04  -3.39125225e-04  -1.79300536e-04   0.00000000e+00   0.00000000e+00   1.02880722e-06  -1.54912800e-06  -1.02880722e-06   1.54912800e-06 
  1.88508482e+10  -2.96145765e-04   7.31965643e-04  -3.68319015e-04  -1.24183134e-04  -3.68319015e-04  -1.24183134e-04  -0.00000000e+00   0.00000000e+00   7.48238278e-07  -1.84806368e-06  -7.48238278e-07   1.84806368e-06 
  1.93576278e+10  -1.59138275e-04   8.37606145e-04  -3.93562077e-04  -6.79915829e-05  -3.93562077e-04  -6.79915829e-05  -0.00000000e+00   0.00000000e+00   3.76509348e-07  -2.09531800e-06  -3.76509348e-07   2.09531800e-06 
  1.98644075e+10   1.27157437e-05   9.17438825e-04  -4.17410920e-04  -7.08938251e-06  -4.17410920e-04  -7.08938251e-06  -0.00000000e+00   0.00000000e+00  -7.57460370e-08  -2.25853660e-06   7.57460370e-08   2.25853660e-06 
  2.03711872e+10   2.14002619e-04   9.59167955e-04  -4.38868854e-04   6.40066064e-05  -4.38868854e-04   6.40066064e-05  -0.00000000e+00   0.00000000e+00  -5.83604049e-07  -2.30892147e-06   5.83604049e-07   2.30892147e-06 
  2.08779669e+10   4.34113404e-04   9.52341827e-04  -4.52572422e-04   1.50224179e-04  -4.52572422e-04   1.50224179e-04  -0.00000000e+00   0.00000000e+00  -1.11041550e-06  -2.22893186e-06   1.11041550e-06   2.22893186e-06 
  2.13847466e+10   6.58656994e-04   8.91092641e-04  -4.49262472e-04   2.53359496e-04  -4.49262472e-04   2.53359496e-04  -0.00000000e+00   0.00000000e+00  -1.61507614e-06  -2.01732701e-06   1.61507614e-06   2.01732701e-06 
  2.18915262e+10   8.72491917e-04   7.75249675e-04  -4.17552917e-04   3.69696732e-04  -4.17552917e-04   3.69696732e-04  -0.00000000e+00   0.00000000e+00  -2.06098161e-06  -1.68865938e-06   2.06098161e-06   1.68865938e-06 
  2.23983059e+10   1.06241356e-03   6.09068724e-04  -3.47236870e-04   4.88490565e-04  -3.47236870e-04   4.88490565e-04  -0.00000000e+00   0.00000000e+00  -2.42235956e-06  -1.26755572e-06   2.42235956e-06   1.26755572e-06 
  2.29050856e+10   1.21773337e-03   3.98980337e-04  -2.33789222e-04   5.92593045e-04  -2.33789222e-04   5.92593045e-04   0.00000000e+00  -0.00000000e+00  -2.68524514e-06  -7.81438700e-07   2.68524514e-06   7.81438700e-07 
  2.34118653e+10   1.32920488e-03   1.52638953e-04  -8.23237933e-05   6.62307604e-04  -8.23237933e-05   6.62307604e-04   0.00000000e+00  -0.00000000e+00  -2.84448265e-06  -2.55829036e-07   2.84448265e-06   2.55829036e-07 
  2.39186450e+10   1.38854410e-03  -1.20200682e-04   9.15975324e-05   6.81709149e-04   9.15975324e-05   6.81709149e-04   0.00000000e+00  -0.00000000e+00  -2.90048274e-06   2.86644848e-07   2.90048274e-06  -2.86644848e-07 
  2.44254246e+10   1.38999743e-03  -4.06852399e-04   2.65662704e-04   6.44501531e-04   2.65662704e-04   6.44501531e-04   0.00000000e+00  -0.00000000e+00  -2.85827718e-06   8.25946245e-07   2.85827718e-06  -8.25946245e-07 
  2.49322043e+10   1.33266603e-03  -6.93213951e-04   4.17576579e-04   5.56183455e-04   4.17576579e-04   5.56183455e-04   0.00000000e+00  -0.00000000e+00  -2.72770899e-06   1.34614857e-06   2.72770899e-06  -1.34614857e-06 
  2.54389840e+10   1.22071197e-03  -9.67316213e-04   5.31381462e-04   4.31498513e-04   5.31381462e-04   4.31498513e-04   0.00000000e+00  -0.00000000e+00  -2.52145492e-06   1.83857287e-06   2.52145492e-06  -1.83857287e-06 
  2.59457637e+10   1.06029026e-03  -1.22198754e-03   6.00495492e-04   2.89108051e-04   6.00495492e-04   2.89108051e-04   0.00000000e+00  -0.00000000e+00  -2.24952942e-06   2.30318005e-06   2.24952942e-06  -2.30318005e-06 
  2.64525434e+10   8.55381775e-04  -1.45398092e-03   6.27176662e-04   1.46465129e-04   6.27176662e-04   1.46465129e-04   0.00000000e+00   0.00000000e+00  -1.91313643e-06   2.74498802e-06   1.91313643e-06  -2.74498802e-06 
  2.69593230e+10   6.05983019e-04  -1.66020368e-03   6.20106584e-04   1.64504763e-05   6.20106584e-04   1.64504763e-05   0.00000000e+00   0.00000000e+00  -1.50242693e-06   3.16627188e-06   1.50242693e-06  -3.16627188e-06 
  2.74661027e+10   3.09770927e-04  -1.83423993e-03   5.91435644e-04  -9.45348365e-05   5.91435644e-04  -9.45348365e-05   0.00000000e+00   0.00000000e+00  -1.00018929e-06   3.55898305e-06   1.00018929e-06  -3.55898305e-06 
  2.79728824e+10  -3.47507921e-05  -1.96543010e-03   5.53275691e-04  -1.87447862e-04   5.53275691e-04  -1.87447862e-04   0.00000000e+00   0.00000000e+00  -3.89259270e-07   3.90123159e-06   3.89259270e-07  -3.90123159e-06 
  2.84796621e+10  -4.26215905e-04  -2.03982624e-03   5.13455772e-04  -2.69701908e-04   5.13455772e-04  -2.69701908e-04   0.00000000e+00   0.00000000e+00   3.40316006e-07   4.15822433e-06  -3.40316006e-07  -4.15822433e-06 
  2.89864418e+10  -8.59341817e-04  -2.04081391e-03   4.71966778e-04  -3.51314258e-04   4.71966778e-04  -3.51314258e-04   0.00000000e+00   0.00000000e+00   1.18564662e-06   4.28533986e-06  -1.18564662e-06  -4.28533986e-06 
  2.94932214e+10  -1.32296060e-03  -1.94925850e-03   4.20672295e-04  -4.38845193e-04   4.20672295e-04  -4.38845193e-04   0.00000000e+00   0.00000000e+00   2.12589021e-06   4.23233723e-06  -2.12589021e-06  -4.23233723e-06 
  3.00000011e+10  -1.79650250e-03  -1.74560514e-03   3.47611873e-04  -5.30268822e-04   3.47611873e-04  -5.30268822e-04   0.00000000e+00   0.00000000e+00   3.11707709e-06   3.95074267e-06  -3.11707709e-06  -3.95074267e-06 
