# Waveform# 0
#         f (Hz)       Re(wf) (-)       Im(wf) (-)
  0.00000000e+00   1.77245388e+01   0.00000000e+00 
  9.99308288e+08   1.77014523e+01  -8.90522420e-01 
  1.99861658e+09   1.76322575e+01  -1.77858436e+00 
  2.99792486e+09   1.75171661e+01  -2.66173315e+00 
  3.99723315e+09   1.73565159e+01  -3.53753185e+00 
  4.99654144e+09   1.71507568e+01  -4.40356541e+00 
  5.99584973e+09   1.69004936e+01  -5.25744915e+00 
  6.99515802e+09   1.66064644e+01  -6.09682989e+00 
  7.99446630e+09   1.62695274e+01  -6.91941309e+00 
  8.99377459e+09   1.58906469e+01  -7.72294092e+00 
  9.99308288e+09   1.54709311e+01  -8.50521851e+00 
  1.09923912e+10   1.50116014e+01  -9.26411629e+00 
  1.19916995e+10   1.45139847e+01  -9.99758244e+00 
  1.29910077e+10   1.39795313e+01  -1.07036333e+01 
  1.39903160e+10   1.34097767e+01  -1.13803692e+01 
  1.49896243e+10   1.28063698e+01  -1.20259857e+01 
  1.59889326e+10   1.21710529e+01  -1.26387653e+01 
  1.69882409e+10   1.15056553e+01  -1.32170954e+01 
  1.79875492e+10   1.08120899e+01  -1.37594681e+01 
  1.89868564e+10   1.00923443e+01  -1.42644882e+01 
  1.99861658e+10   9.34848213e+00  -1.47308559e+01 
  2.09854751e+10   8.58263016e+00  -1.51574030e+01 
  2.19847823e+10   7.79697037e+00  -1.55430794e+01 
  2.29840896e+10   6.99373531e+00  -1.58869534e+01 
  2.39833989e+10   6.17520380e+00  -1.61882172e+01 
  2.49827082e+10   5.34368992e+00  -1.64461975e+01 
  2.59820155e+10   4.50154257e+00  -1.66603374e+01 
  2.69813228e+10   3.65112233e+00  -1.68302174e+01 
  2.79806321e+10   2.79481196e+00  -1.69555550e+01 
  2.89799414e+10   1.93499959e+00  -1.70361843e+01 
  2.99792486e+10   1.07408178e+00  -1.70720806e+01 
  3.09785559e+10   2.14433089e-01  -1.70633392e+01 
  3.19778652e+10  -6.41576052e-01  -1.70102062e+01 
  3.29771745e+10  -1.49159956e+00  -1.69130287e+01 
  3.39764818e+10  -2.33331919e+00  -1.67723007e+01 
  3.49757891e+10  -3.16445160e+00  -1.65886326e+01 
  3.59750984e+10  -3.98276114e+00  -1.63627510e+01 
  3.69744077e+10  -4.78605366e+00  -1.60955219e+01 
  3.79737129e+10  -5.57219267e+00  -1.57879028e+01 
  3.89730222e+10  -6.33910847e+00  -1.54409857e+01 
  3.99723315e+10  -7.08479548e+00  -1.50559473e+01 
  4.09716408e+10  -7.80731678e+00  -1.46340885e+01 
  4.19709501e+10  -8.50482082e+00  -1.41768007e+01 
  4.29702554e+10  -9.17553902e+00  -1.36855774e+01 
  4.39695647e+10  -9.81779861e+00  -1.31619864e+01 
  4.49688740e+10  -1.04300032e+01  -1.26076984e+01 
  4.59681792e+10  -1.10106621e+01  -1.20244532e+01 
  4.69674885e+10  -1.15584002e+01  -1.14140577e+01 
  4.79667978e+10  -1.20719366e+01  -1.07783947e+01 
  4.89661071e+10  -1.25500879e+01  -1.01194096e+01 
  4.99654164e+10  -1.29918079e+01  -9.43909359e+00 
  5.09647217e+10  -1.33961372e+01  -8.73948956e+00 
  5.19640310e+10  -1.37622499e+01  -8.02268410e+00 
  5.29633403e+10  -1.40894403e+01  -7.29078817e+00 
  5.39626455e+10  -1.43771038e+01  -6.54596043e+00 
  5.49619548e+10  -1.46247740e+01  -5.79035473e+00 
  5.59612641e+10  -1.48320951e+01  -5.02615595e+00 
  5.69605734e+10  -1.49988346e+01  -4.25554991e+00 
  5.79598828e+10  -1.51248865e+01  -3.48072648e+00 
  5.89591880e+10  -1.52102509e+01  -2.70387769e+00 
  5.99584973e+10  -1.52550602e+01  -1.92715776e+00 
  6.09578066e+10  -1.52595510e+01  -1.15272403e+00 
  6.19571118e+10  -1.52240887e+01  -3.82699370e-01 
  6.29564211e+10  -1.51491499e+01   3.80824298e-01 
  6.39557304e+10  -1.50353098e+01   1.13579345e+00 
  6.49550397e+10  -1.48832617e+01   1.88019812e+00 
  6.59543491e+10  -1.46938019e+01   2.61207962e+00 
  6.69536543e+10  -1.44678345e+01   3.32953215e+00 
  6.79529636e+10  -1.42063570e+01   4.03071451e+00 
  6.89522688e+10  -1.39104595e+01   4.71384478e+00 
  6.99515781e+10  -1.35813141e+01   5.37722349e+00 
  7.09508874e+10  -1.32201881e+01   6.01922035e+00 
  7.19501967e+10  -1.28284311e+01   6.63827419e+00 
  7.29495060e+10  -1.24074640e+01   7.23292303e+00 
  7.39488154e+10  -1.19587765e+01   7.80178547e+00 
  7.49481247e+10  -1.14839230e+01   8.34356880e+00 
  7.59474258e+10  -1.09845276e+01   8.85707283e+00 
  7.69467351e+10  -1.04622517e+01   9.34119987e+00 
  7.79460444e+10  -9.91881466e+00   9.79495335e+00 
  7.89453537e+10  -9.35597515e+00   1.02174225e+01 
  7.99446630e+10  -8.77553177e+00   1.06078062e+01 
  8.09439724e+10  -8.17931271e+00   1.09654093e+01 
  8.19432817e+10  -7.56916618e+00   1.12896404e+01 
  8.29425910e+10  -6.94696522e+00   1.15800123e+01 
  8.39419003e+10  -6.31459332e+00   1.18361387e+01 
  8.49412014e+10  -5.67393827e+00   1.20577450e+01 
  8.59405107e+10  -5.02689028e+00   1.22446585e+01 
  8.69398200e+10  -4.37532997e+00   1.23968077e+01 
  8.79391293e+10  -3.72113442e+00   1.25142298e+01 
  8.89384387e+10  -3.06616759e+00   1.25970602e+01 
  8.99377480e+10  -2.41225410e+00   1.26455250e+01 
  9.09370573e+10  -1.76121569e+00   1.26599684e+01 
  9.19363584e+10  -1.11481833e+00   1.26408157e+01 
  9.29356677e+10  -4.74797964e-01   1.25885868e+01 
  9.39349770e+10   1.57138839e-01   1.25038872e+01 
  9.49342863e+10   7.79356241e-01   1.23874273e+01 
  9.59335956e+10   1.39025009e+00   1.22399807e+01 
  9.69329050e+10   1.98827517e+00   1.20624104e+01 
  9.79322143e+10   2.57195783e+00   1.18556528e+01 
  9.89315236e+10   3.13987041e+00   1.16207247e+01 
  9.99308329e+10   3.69067287e+00   1.13586998e+01 
  1.00930134e+11   4.22307539e+00   1.10707188e+01 
  1.01929443e+11   4.73587465e+00   1.07579899e+01 
  1.02928753e+11   5.22794294e+00   1.04217625e+01 
  1.03928062e+11   5.69821358e+00   1.00633526e+01 
  1.04927371e+11   6.14572668e+00   9.68410206e+00 
  1.05926681e+11   6.56958580e+00   9.28541374e+00 
  1.06925990e+11   6.96897459e+00   8.86871052e+00 
  1.07925291e+11   7.34318161e+00   8.43545914e+00 
  1.08924600e+11   7.69156647e+00   7.98712873e+00 
  1.09923910e+11   8.01357555e+00   7.52524090e+00 
  1.10923219e+11   8.30874825e+00   7.05131149e+00 
  1.11922528e+11   8.57670021e+00   6.56687021e+00 
  1.12921838e+11   8.81714630e+00   6.07345486e+00 
  1.13921147e+11   9.02988148e+00   5.57260704e+00 
  1.14920456e+11   9.21478081e+00   5.06586218e+00 
  1.15919766e+11   9.37181664e+00   4.55474281e+00 
  1.16919067e+11   9.50102997e+00   4.04077625e+00 
  1.17918376e+11   9.60255623e+00   3.52543616e+00 
  1.18917685e+11   9.67659950e+00   3.01021218e+00 
  1.19916995e+11   9.72344398e+00   2.49655080e+00 
  1.20916304e+11   9.74345493e+00   1.98586226e+00 
  1.21915613e+11   9.73706818e+00   1.47954106e+00 
  1.22914922e+11   9.70478630e+00   9.78923559e-01 
  1.23914224e+11   9.64718342e+00   4.85323727e-01 
  1.24913533e+11   9.56489849e+00  -2.80483005e-06 
  1.25912842e+11   9.45862198e+00  -4.75849181e-01 
  1.26912152e+11   9.32912350e+00  -9.41041231e-01 
  1.27911461e+11   9.17720318e+00  -1.39448190e+00 
  1.28910770e+11   9.00372887e+00  -1.83511043e+00 
  1.29910079e+11   8.80961323e+00  -2.26193023e+00 
  1.30909389e+11   8.59580708e+00  -2.67401385e+00 
  1.31908698e+11   8.36331463e+00  -3.07047844e+00 
  1.32907999e+11   8.11315441e+00  -3.45051885e+00 
  1.33907309e+11   7.84639072e+00  -3.81339478e+00 
  1.34906618e+11   7.56412268e+00  -4.15841675e+00 
  1.35905927e+11   7.26746368e+00  -4.48497915e+00 
  1.36905236e+11   6.95754385e+00  -4.79253340e+00 
  1.37904538e+11   6.63553238e+00  -5.08059406e+00 
  1.38903847e+11   6.30257893e+00  -5.34876442e+00 
  1.39903156e+11   5.95986605e+00  -5.59669209e+00 
  1.40902466e+11   5.60857010e+00  -5.82410431e+00 
  1.41901775e+11   5.24987507e+00  -6.03079176e+00 
  1.42901084e+11   4.88496017e+00  -6.21660805e+00 
  1.43900393e+11   4.51499271e+00  -6.38148546e+00 
  1.44899703e+11   4.14113951e+00  -6.52540064e+00 
  1.45899012e+11   3.76454520e+00  -6.64840746e+00 
  1.46898321e+11   3.38634682e+00  -6.75062084e+00 
  1.47897631e+11   3.00765872e+00  -6.83220387e+00 
  1.48896940e+11   2.62956333e+00  -6.89339161e+00 
  1.49896249e+11   2.25313735e+00  -6.93446445e+00 
  1.50895559e+11   1.87940598e+00  -6.95576715e+00 
  1.51894852e+11   1.50938547e+00  -6.95768261e+00 
  1.52894161e+11   1.14403760e+00  -6.94065523e+00 
  1.53893470e+11   7.84299195e-01  -6.90517235e+00 
  1.54892780e+11   4.31070566e-01  -6.85176325e+00 
  1.55892089e+11   8.52137804e-02  -6.78099728e+00 
  1.56891398e+11  -2.52464116e-01  -6.69349051e+00 
  1.57890707e+11  -5.81180274e-01  -6.58989143e+00 
  1.58890017e+11  -9.00215745e-01  -6.47087622e+00 
  1.59889326e+11  -1.20888567e+00  -6.33715963e+00 
  1.60888635e+11  -1.50655055e+00  -6.18948412e+00 
  1.61887945e+11  -1.79262936e+00  -6.02860069e+00 
  1.62887254e+11  -2.06658077e+00  -5.85530806e+00 
  1.63886563e+11  -2.32792211e+00  -5.67040062e+00 
  1.64885873e+11  -2.57620573e+00  -5.47470379e+00 
  1.65885182e+11  -2.81105304e+00  -5.26904392e+00 
  1.66884491e+11  -3.03211832e+00  -5.05426455e+00 
  1.67883801e+11  -3.23911357e+00  -4.83121586e+00 
  1.68883094e+11  -3.43179893e+00  -4.60075235e+00 
  1.69882403e+11  -3.60998750e+00  -4.36371756e+00 
  1.70881712e+11  -3.77353621e+00  -4.12097502e+00 
  1.71881021e+11  -3.92235017e+00  -3.87336636e+00 
  1.72880331e+11  -4.05638695e+00  -3.62172866e+00 
  1.73879640e+11  -4.17564058e+00  -3.36690617e+00 
  1.74878949e+11  -4.28015184e+00  -3.10970783e+00 
  1.75878259e+11  -4.37001705e+00  -2.85094261e+00 
  1.76877568e+11  -4.44535637e+00  -2.59141231e+00 
  1.77876877e+11  -4.50634241e+00  -2.33187079e+00 
  1.78876187e+11  -4.55319214e+00  -2.07308221e+00 
  1.79875496e+11  -4.58614111e+00  -1.81577301e+00 
  1.80874805e+11  -4.60547352e+00  -1.56064987e+00 
  1.81874115e+11  -4.61150742e+00  -1.30839825e+00 
  1.82873424e+11  -4.60459185e+00  -1.05966270e+00 
  1.83872717e+11  -4.58510542e+00  -8.15077662e-01 
  1.84872026e+11  -4.55344915e+00  -5.75230777e-01 
  1.85871335e+11  -4.51005602e+00  -3.40691388e-01 
  1.86870645e+11  -4.45538425e+00  -1.11992612e-01 
  1.87869954e+11  -4.38991261e+00   1.10356092e-01 
  1.88869263e+11  -4.31413412e+00   3.25898916e-01 
  1.89868573e+11  -4.22856379e+00   5.34196079e-01 
  1.90867882e+11  -4.13373470e+00   7.34847724e-01 
  1.91867191e+11  -4.03019238e+00   9.27485883e-01 
  1.92866501e+11  -3.91848898e+00   1.11177957e+00 
  1.93865810e+11  -3.79919028e+00   1.28743851e+00 
  1.94865119e+11  -3.67286277e+00   1.45419621e+00 
  1.95864429e+11  -3.54008937e+00   1.61182761e+00 
  1.96863738e+11  -3.40144587e+00   1.76013982e+00 
  1.97863047e+11  -3.25751972e+00   1.89897311e+00 
  1.98862356e+11  -3.10888362e+00   2.02820873e+00 
  1.99861666e+11  -2.95611787e+00   2.14775205e+00 
  2.00860959e+11  -2.79979634e+00   2.25754261e+00 
  2.01860268e+11  -2.64048505e+00   2.35755777e+00 
  2.02859577e+11  -2.47874928e+00   2.44779515e+00 
  2.03858887e+11  -2.31512952e+00   2.52829766e+00 
  2.04858196e+11  -2.15017223e+00   2.59911752e+00 
  2.05857505e+11  -1.98440349e+00   2.66035295e+00 
  2.06856815e+11  -1.81833744e+00   2.71211410e+00 
  2.07856124e+11  -1.65247917e+00   2.75454807e+00 
  2.08855433e+11  -1.48730421e+00   2.78782248e+00 
  2.09854743e+11  -1.32328248e+00   2.81212592e+00 
  2.10854052e+11  -1.16085994e+00   2.82767224e+00 
  2.11853361e+11  -1.00047255e+00   2.83469319e+00 
  2.12852670e+11  -8.42527211e-01   2.83343816e+00 
  2.13851980e+11  -6.87412083e-01   2.82418013e+00 
  2.14851289e+11  -5.35496294e-01   2.80720210e+00 
  2.15850582e+11  -3.87133628e-01   2.78281069e+00 
  2.16849891e+11  -2.42640674e-01   2.75131106e+00 
  2.17849201e+11  -1.02323003e-01   2.71303225e+00 
  2.18848510e+11   3.35355438e-02   2.66831398e+00 
  2.19847819e+11   1.64682433e-01   2.61749983e+00 
  2.20847129e+11   2.90880442e-01   2.56094170e+00 
  2.21846438e+11   4.11920965e-01   2.49900150e+00 
  2.22845747e+11   5.27608991e-01   2.43204665e+00 
  2.23845057e+11   6.37782693e-01   2.36044335e+00 
  2.24844366e+11   7.42300093e-01   2.28455901e+00 
  2.25843675e+11   8.41042459e-01   2.20476794e+00 
  2.26842984e+11   9.33906078e-01   2.12144542e+00 
  2.27842294e+11   1.02081323e+00   2.03495884e+00 
  2.28841603e+11   1.10171294e+00   1.94567883e+00 
  2.29840912e+11   1.17656732e+00   1.85396445e+00 
  2.30840222e+11   1.24535978e+00   1.76017964e+00 
  2.31839531e+11   1.30809522e+00   1.66467285e+00 
  2.32838824e+11   1.36479700e+00   1.56780124e+00 
  2.33838133e+11   1.41550708e+00   1.46989954e+00 
  2.34837443e+11   1.46028352e+00   1.37129450e+00 
  2.35836752e+11   1.49920189e+00   1.27230978e+00 
  2.36836061e+11   1.53235197e+00   1.17326355e+00 
  2.37835370e+11   1.55984020e+00   1.07444906e+00 
  2.38834680e+11   1.58178520e+00   9.76165533e-01 
  2.39833989e+11   1.59832287e+00   8.78682077e-01 
  2.40833298e+11   1.60959828e+00   7.82268405e-01 
  2.41832608e+11   1.61576319e+00   6.87177122e-01 
  2.42831917e+11   1.61698961e+00   5.93649387e-01 
  2.43831226e+11   1.61345494e+00   5.01913846e-01 
  2.44830536e+11   1.60534239e+00   4.12178069e-01 
  2.45829845e+11   1.59284770e+00   3.24642718e-01 
  2.46829154e+11   1.57616997e+00   2.39494249e-01 
  2.47828447e+11   1.55551648e+00   1.56903252e-01 
  2.48827757e+11   1.53109753e+00   7.70213529e-02 
  2.49827066e+11   1.50312841e+00  -1.21078813e-06 
  2.50826375e+11   1.47182941e+00  -7.40475729e-02 
  2.51825684e+11   1.43742025e+00  -1.44997671e-01 
  2.52824994e+11   1.40012491e+00  -2.12753877e-01 
  2.53824303e+11   1.36016917e+00  -2.77226537e-01 
  2.54823612e+11   1.31777442e+00  -3.38350058e-01 
  2.55822922e+11   1.27316451e+00  -3.96063656e-01 
  2.56822231e+11   1.22656214e+00  -4.50318962e-01 
  2.57821540e+11   1.17818582e+00  -5.01085222e-01 
  2.58820850e+11   1.12825871e+00  -5.48342049e-01 
  2.59820159e+11   1.07698739e+00  -5.92082202e-01 
  2.60819468e+11   1.02458525e+00  -6.32308125e-01 
  2.61818778e+11   9.71259356e-01  -6.69031739e-01 
  2.62818087e+11   9.17208612e-01  -7.02279150e-01 
  2.63817396e+11   8.62630069e-01  -7.32085824e-01 
  2.64816689e+11   8.07712555e-01  -7.58496106e-01 
  2.65815998e+11   7.52638698e-01  -7.81565428e-01 
  2.66815308e+11   6.97584629e-01  -8.01353097e-01 
  2.67814617e+11   6.42719924e-01  -8.17930579e-01 
  2.68813926e+11   5.88206351e-01  -8.31378281e-01 
  2.69813236e+11   5.34206152e-01  -8.41777503e-01 
  2.70812545e+11   4.80854720e-01  -8.49222541e-01 
  2.71811854e+11   4.28298503e-01  -8.53809237e-01 
  2.72811164e+11   3.76666129e-01  -8.55641901e-01 
  2.73810473e+11   3.26079696e-01  -8.54826689e-01 
  2.74809782e+11   2.76659071e-01  -8.51472616e-01 
  2.75809075e+11   2.28502899e-01  -8.45701039e-01 
  2.76808401e+11   1.81710288e-01  -8.37625742e-01 
  2.77807694e+11   1.36371762e-01  -8.27368736e-01 
  2.78807020e+11   9.25718024e-02  -8.15055728e-01 
  2.79806312e+11   5.03805466e-02  -8.00807595e-01 
  2.80805638e+11   9.85761546e-03  -7.84754157e-01 
  2.81804931e+11  -2.89321300e-02  -7.67019153e-01 
  2.82804257e+11  -6.59468174e-02  -7.47730076e-01 
  2.83803550e+11  -1.01143911e-01  -7.27014601e-01 
  2.84802875e+11  -1.34489208e-01  -7.05000579e-01 
  2.85802168e+11  -1.65958062e-01  -6.81808293e-01 
  2.86801494e+11  -1.95534334e-01  -6.57564223e-01 
  2.87800787e+11  -2.23200470e-01  -6.32390857e-01 
  2.88800080e+11  -2.48954415e-01  -6.06404901e-01 
  2.89799406e+11  -2.72801936e-01  -5.79725623e-01 
  2.90798698e+11  -2.94746429e-01  -5.52470386e-01 
  2.91798024e+11  -3.14802617e-01  -5.24743557e-01 
  2.92797317e+11  -3.32991004e-01  -4.96659666e-01 
  2.93796643e+11  -3.49337906e-01  -4.68320817e-01 
  2.94795936e+11  -3.63863766e-01  -4.39831376e-01 
  2.95795261e+11  -3.76613230e-01  -4.11284775e-01 
  2.96794554e+11  -3.87622118e-01  -3.82775754e-01 
  2.97793880e+11  -3.96929950e-01  -3.54392856e-01 
  2.98793173e+11  -4.04585958e-01  -3.26222152e-01 
  2.99792499e+11  -4.10636693e-01  -2.98343390e-01 
  3.00791792e+11  -4.15143460e-01  -2.70833433e-01 
  3.01791117e+11  -4.18153852e-01  -2.43757918e-01 
  3.02790410e+11  -4.19726640e-01  -2.17189103e-01 
  3.03789703e+11  -4.19924319e-01  -1.91190317e-01 
  3.04789029e+11  -4.18808520e-01  -1.65814504e-01 
  3.05788322e+11  -4.16442722e-01  -1.41117603e-01 
  3.06787647e+11  -4.12895441e-01  -1.17147490e-01 
  3.07786940e+11  -4.08226222e-01  -9.39444825e-02 
  3.08786266e+11  -4.02506530e-01  -7.15495795e-02 
  3.09785559e+11  -3.95800948e-01  -4.99975979e-02 
  3.10784885e+11  -3.88178289e-01  -2.93207169e-02 
  3.11784178e+11  -3.79704744e-01  -9.54354834e-03 
  3.12783503e+11  -3.70454758e-01   9.31645092e-03 
  3.13782796e+11  -3.60480845e-01   2.72349678e-02 
  3.14782122e+11  -3.49861622e-01   4.42011207e-02 
  3.15781415e+11  -3.38657856e-01   6.02047779e-02 
  3.16780741e+11  -3.26930434e-01   7.52406344e-02 
  3.17780034e+11  -3.14746529e-01   8.93048644e-02 
  3.18779359e+11  -3.02170187e-01   1.02399483e-01 
  3.19778652e+11  -2.89251328e-01   1.14525646e-01 
  3.20777945e+11  -2.76057541e-01   1.25692472e-01 
  3.21777271e+11  -2.62640595e-01   1.35912210e-01 
  3.22776564e+11  -2.49057382e-01   1.45191029e-01 
  3.23775889e+11  -2.35357687e-01   1.53547257e-01 
  3.24775182e+11  -2.21594468e-01   1.61001205e-01 
  3.25774508e+11  -2.07815215e-01   1.67569503e-01 
  3.26773801e+11  -1.94065973e-01   1.73271850e-01 
  3.27773127e+11  -1.80389866e-01   1.78140730e-01 
  3.28772420e+11  -1.66825533e-01   1.82191327e-01 
  3.29771745e+11  -1.53418884e-01   1.85453504e-01 
  3.30771038e+11  -1.40199408e-01   1.87956735e-01 
  3.31770364e+11  -1.27204135e-01   1.89735994e-01 
  3.32769657e+11  -1.14465937e-01   1.90810531e-01 
  3.33768983e+11  -1.02011643e-01   1.91218629e-01 
  3.34768275e+11  -8.98711383e-02   1.90991253e-01 
  3.35767601e+11  -7.80652910e-02   1.90161005e-01 
  3.36766894e+11  -6.66202232e-02   1.88757733e-01 
  3.37766187e+11  -5.55506870e-02   1.86826497e-01 
  3.38765513e+11  -4.48761694e-02   1.84384197e-01 
  3.39764806e+11  -3.46159711e-02   1.81475192e-01 
  3.40764131e+11  -2.47777812e-02   1.78132832e-01 
  3.41763424e+11  -1.53775178e-02   1.74385652e-01 
  3.42762750e+11  -6.42037950e-03   1.70269400e-01 
  3.43762043e+11   2.08464591e-03   1.65819183e-01 
  3.44761369e+11   1.01356385e-02   1.61062852e-01 
  3.45760662e+11   1.77257471e-02   1.56036675e-01 
  3.46759987e+11   2.48548351e-02   1.50763929e-01 
  3.47759280e+11   3.15200612e-02   1.45285696e-01 
  3.48758606e+11   3.77288014e-02   1.39623418e-01 
  3.49757899e+11   4.34790179e-02   1.33806631e-01 
  3.50757224e+11   4.87781204e-02   1.27864748e-01 
  3.51756517e+11   5.36319837e-02   1.21825181e-01 
  3.52755810e+11   5.80468141e-02   1.15711935e-01 
  3.53755136e+11   6.20326288e-02   1.09547973e-01 
  3.54754429e+11   6.55955002e-02   1.03357323e-01 
  3.55753755e+11   6.87461793e-02   9.71619338e-02 
  3.56753048e+11   7.15006217e-02   9.09911171e-02 
  3.57752373e+11   7.38698319e-02   8.48535448e-02 
  3.58751666e+11   7.58614242e-02   7.87727684e-02 
  3.59750992e+11   7.74933174e-02   7.27675930e-02 
  3.60750285e+11   7.87756741e-02   6.68499619e-02 
  3.61749610e+11   7.97304139e-02   6.10434525e-02 
  3.62748903e+11   8.03633034e-02   5.53529002e-02 
  3.63748229e+11   8.06904435e-02   4.97926846e-02 
  3.64747522e+11   8.07329267e-02   4.43815999e-02 
  3.65746848e+11   8.05022568e-02   3.91210392e-02 
  3.66746141e+11   8.00178126e-02   3.40296440e-02 
  3.67745434e+11   7.92915523e-02   2.91110426e-02 
  3.68744759e+11   7.83417597e-02   2.43684463e-02 
  3.69744052e+11   7.71816000e-02   1.98135749e-02 
  3.70743378e+11   7.58296400e-02   1.54525293e-02 
  3.71742671e+11   7.42987767e-02   1.12848626e-02 
  3.72741997e+11   7.26040676e-02   7.32230023e-03 
  3.73741289e+11   7.07617924e-02   3.55672534e-03 
  3.74740615e+11   6.87875077e-02  -1.18663786e-06 
  3.75739908e+11   6.66913912e-02  -3.35818785e-03 
  3.76739234e+11   6.44937828e-02  -6.50615618e-03 
  3.77738527e+11   6.22026026e-02  -9.45292413e-03 
  3.78737852e+11   5.98347709e-02  -1.21960025e-02 
  3.79737145e+11   5.73990829e-02  -1.47402259e-02 
  3.80736471e+11   5.49094304e-02  -1.70841161e-02 
  3.81735764e+11   5.23822308e-02  -1.92339886e-02 
