# (0,3,0)->(0,0.03,0)
#         f (Hz)     Re(Ex) (V/m)     Im(Ex) (V/m)     Re(Ey) (V/m)     Im(Ey) (V/m)     Re(Ez) (V/m)     Im(Ez) (V/m)     Re(Hx) (V/m)     Im(Hx) (V/m)     Re(Hy) (V/m)     Im(Hy) (V/m)     Re(Hz) (V/m)     Im(Hz) (V/m)
  0.00000000e+00  -6.55349910e-01   0.00000000e+00   0.00000000e+00   0.00000000e+00   0.00000000e+00   0.00000000e+00   0.00000000e+00   0.00000000e+00   1.78334303e-09   0.00000000e+00  -1.74046599e-03   0.00000000e+00 
  1.19917030e+07  -5.89799225e-01   2.55548477e-01   0.00000000e+00   0.00000000e+00   0.00000000e+00   0.00000000e+00   0.00000000e+00   0.00000000e+00   5.09843140e-11  -2.04154194e-11  -1.56764314e-03   6.75758522e-04 
  2.39834060e+07  -4.19161767e-01   4.38976347e-01   0.00000000e+00   0.00000000e+00   0.00000000e+00   0.00000000e+00   0.00000000e+00   0.00000000e+00   4.53947366e-11  -4.47390701e-11  -1.11753936e-03   1.16166542e-03 
  3.59751090e+07  -2.05895096e-01   5.13315380e-01   0.00000000e+00   0.00000000e+00   0.00000000e+00   0.00000000e+00   0.00000000e+00   0.00000000e+00   2.87531769e-11  -6.71233832e-11  -5.54425933e-04   1.36016984e-03 
  4.79668120e+07  -1.44373653e-02   4.88344967e-01   0.00000000e+00   0.00000000e+00   0.00000000e+00   0.00000000e+00   0.00000000e+00   0.00000000e+00   2.54491805e-12  -8.39660494e-11  -4.80129929e-05   1.29660929e-03 
  5.99585150e+07   1.17634080e-01   4.05171782e-01   0.00000000e+00   0.00000000e+00   0.00000000e+00   0.00000000e+00   0.00000000e+00   0.00000000e+00  -3.02339022e-11  -8.84410462e-11   3.02362372e-04   1.07890542e-03 
  7.19502180e+07   1.87494308e-01   3.09157699e-01   0.00000000e+00   0.00000000e+00   0.00000000e+00   0.00000000e+00   0.00000000e+00   0.00000000e+00  -6.44538103e-11  -7.51961618e-11   4.88723861e-04   8.26563046e-04 
  8.39419210e+07   2.15968177e-01   2.29100704e-01   0.00000000e+00   0.00000000e+00   0.00000000e+00   0.00000000e+00   0.00000000e+00   0.00000000e+00  -8.58672508e-11  -4.72878438e-11   5.65566006e-04   6.15864177e-04 
  9.59336240e+07   2.29118228e-01   1.70985490e-01   0.00000000e+00   0.00000000e+00   0.00000000e+00   0.00000000e+00   0.00000000e+00   0.00000000e+00  -9.04448461e-11  -1.28806453e-11   6.01631706e-04   4.63114440e-04 
  1.07925327e+08   2.43589595e-01   1.24397315e-01   0.00000000e+00   0.00000000e+00   0.00000000e+00   0.00000000e+00   0.00000000e+00   0.00000000e+00  -7.60953106e-11   1.66566084e-11   6.41266699e-04   3.41170089e-04 
  1.19917030e+08   2.61124402e-01   7.46905580e-02   0.00000000e+00   0.00000000e+00   0.00000000e+00   0.00000000e+00   0.00000000e+00   0.00000000e+00  -5.08248547e-11   3.23789814e-11   6.89642096e-04   2.11248596e-04 
  1.31908733e+08   2.72128224e-01   1.38783092e-02   0.00000000e+00   0.00000000e+00   0.00000000e+00   0.00000000e+00   0.00000000e+00   0.00000000e+00  -2.49312446e-11   3.26732738e-11   7.21770863e-04   5.16715445e-05 
  1.43900436e+08   2.64691114e-01  -5.45098893e-02   0.00000000e+00   0.00000000e+00   0.00000000e+00   0.00000000e+00   0.00000000e+00   0.00000000e+00  -5.89888641e-12   2.20343396e-11   7.05986167e-04  -1.28993284e-04 
  1.55892139e+08   2.33712286e-01  -1.18199833e-01   0.00000000e+00   0.00000000e+00   0.00000000e+00   0.00000000e+00   0.00000000e+00   0.00000000e+00   2.95935672e-12   6.43177048e-12   6.28073642e-04  -2.98752653e-04 
  1.67883842e+08   1.84952989e-01  -1.64466798e-01   0.00000000e+00   0.00000000e+00   0.00000000e+00   0.00000000e+00   0.00000000e+00   0.00000000e+00   2.79817749e-12  -6.36158704e-12   5.02390671e-04  -4.23779944e-04 
  1.79875545e+08   1.31455719e-01  -1.88560098e-01   0.00000000e+00   0.00000000e+00   0.00000000e+00   0.00000000e+00   0.00000000e+00   0.00000000e+00  -4.53663664e-13  -1.37998207e-11   3.62958293e-04  -4.90765320e-04 
  1.91867248e+08   8.47496986e-02  -1.96263909e-01   0.00000000e+00   0.00000000e+00   0.00000000e+00   0.00000000e+00   0.00000000e+00   0.00000000e+00  -2.95355559e-12  -1.72424627e-11   2.40508743e-04  -5.14232321e-04 
  2.03858951e+08   4.74540554e-02  -1.98543102e-01   0.00000000e+00   0.00000000e+00   0.00000000e+00   0.00000000e+00   0.00000000e+00   0.00000000e+00  -3.07986297e-12  -1.92605341e-11   1.42669989e-04  -5.22963237e-04 
  2.15850654e+08   1.31138088e-02  -2.02551290e-01   0.00000000e+00   0.00000000e+00   0.00000000e+00   0.00000000e+00   0.00000000e+00   0.00000000e+00  -2.57895983e-12  -2.33296507e-11   5.28651981e-05  -5.36389009e-04 
  2.27842357e+08  -2.68831439e-02  -2.06304744e-01   0.00000000e+00   0.00000000e+00   0.00000000e+00   0.00000000e+00   0.00000000e+00   0.00000000e+00  -2.98035836e-12  -2.94733682e-11  -5.19201349e-05  -5.50008030e-04 
  2.39834060e+08  -7.51870200e-02  -2.00931519e-01   0.00000000e+00   0.00000000e+00   0.00000000e+00   0.00000000e+00   0.00000000e+00   0.00000000e+00  -7.15407681e-12  -3.57950267e-11  -1.79597497e-04  -5.40623849e-04 
  2.51825763e+08  -1.25444382e-01  -1.78221360e-01   0.00000000e+00   0.00000000e+00   0.00000000e+00   0.00000000e+00   0.00000000e+00   0.00000000e+00  -1.52410046e-11  -3.87911127e-11  -3.14292120e-04  -4.85923403e-04 
  2.63817466e+08  -1.66229144e-01  -1.37515739e-01   0.00000000e+00   0.00000000e+00   0.00000000e+00   0.00000000e+00   0.00000000e+00   0.00000000e+00  -2.44897297e-11  -3.72757693e-11  -4.26017970e-04  -3.82959086e-04 
  2.75809169e+08  -1.88795403e-01  -8.69674012e-02   0.00000000e+00   0.00000000e+00   0.00000000e+00   0.00000000e+00   0.00000000e+00   0.00000000e+00  -3.15038898e-11  -3.00884560e-11  -4.90918988e-04  -2.52227066e-04 
  2.87800872e+08  -1.92934647e-01  -3.82633023e-02   0.00000000e+00   0.00000000e+00   0.00000000e+00   0.00000000e+00   0.00000000e+00   0.00000000e+00  -3.29338466e-11  -1.99598966e-11  -5.07211837e-04  -1.24445462e-04 
  2.99792575e+08  -1.86443731e-01   1.32088468e-03  -0.00000000e+00   0.00000000e+00  -0.00000000e+00   0.00000000e+00  -0.00000000e+00   0.00000000e+00  -2.90623862e-11  -1.02004950e-11  -4.94658132e-04  -1.96017645e-05 
  3.11784278e+08  -1.78373620e-01   3.33089381e-02  -0.00000000e+00   0.00000000e+00  -0.00000000e+00   0.00000000e+00  -0.00000000e+00   0.00000000e+00  -2.11223365e-11  -3.90464831e-12  -4.77334310e-04   6.53420575e-05 
  3.23775981e+08  -1.71530992e-01   6.51150271e-02  -0.00000000e+00   0.00000000e+00  -0.00000000e+00   0.00000000e+00  -0.00000000e+00   0.00000000e+00  -1.08756537e-11  -2.12695139e-12  -4.63559642e-04   1.49702275e-04 
  3.35767684e+08  -1.60547957e-01   1.02314331e-01  -0.00000000e+00   0.00000000e+00  -0.00000000e+00   0.00000000e+00  -0.00000000e+00   0.00000000e+00  -2.09868321e-12  -4.81693505e-12  -4.39875264e-04   2.48980854e-04 
  3.47759387e+08  -1.36995956e-01   1.42699748e-01  -0.00000000e+00   0.00000000e+00  -0.00000000e+00   0.00000000e+00  -0.00000000e+00   0.00000000e+00   4.13805578e-12  -9.80064033e-12  -3.83704901e-04   3.58600955e-04 
  3.59751090e+08  -9.70788449e-02   1.76897869e-01  -0.00000000e+00   0.00000000e+00  -0.00000000e+00   0.00000000e+00  -0.00000000e+00   0.00000000e+00   7.63752169e-12  -1.64370392e-11  -2.83650268e-04   4.54460853e-04 
  3.71742793e+08  -4.57684174e-02   1.94840759e-01  -0.00000000e+00   0.00000000e+00  -0.00000000e+00   0.00000000e+00  -0.00000000e+00   0.00000000e+00   8.07584295e-12  -2.23283926e-11  -1.51264932e-04   5.09363599e-04 
  3.83734496e+08   5.80160180e-03   1.93047225e-01  -0.00000000e+00   0.00000000e+00  -0.00000000e+00   0.00000000e+00  -0.00000000e+00   0.00000000e+00   6.66563332e-12  -2.75600966e-11  -1.52714674e-05   5.12501807e-04 
  3.95726199e+08   4.78201956e-02   1.77047014e-01  -0.00000000e+00   0.00000000e+00  -0.00000000e+00   0.00000000e+00  -0.00000000e+00   0.00000000e+00   3.54481830e-12  -3.10807283e-11   9.77207310e-05   4.76946472e-04 
  4.07717902e+08   7.83336386e-02   1.56755090e-01  -0.00000000e+00   0.00000000e+00  -0.00000000e+00   0.00000000e+00  -0.00000000e+00   0.00000000e+00   1.23752544e-13  -3.27394639e-11   1.81084426e-04   4.28507832e-04 
  4.19709605e+08   1.03306308e-01   1.38383523e-01  -0.00000000e+00   0.00000000e+00  -0.00000000e+00   0.00000000e+00  -0.00000000e+00   0.00000000e+00  -3.75401620e-12  -3.24903507e-11   2.49615143e-04   3.84512736e-04 
  4.31701308e+08   1.30019382e-01   1.19775318e-01  -0.00000000e+00   0.00000000e+00  -0.00000000e+00   0.00000000e+00  -0.00000000e+00   0.00000000e+00  -6.29056182e-12  -3.07484455e-11   3.22960666e-04   3.40462255e-04 
  4.43693011e+08   1.59536615e-01   9.31786671e-02  -0.00000000e+00   0.00000000e+00  -0.00000000e+00   0.00000000e+00  -0.00000000e+00   0.00000000e+00  -8.39942612e-12  -2.82587825e-11   4.05362283e-04   2.76052509e-04 
  4.55684714e+08   1.84713140e-01   5.29660322e-02  -0.00000000e+00   0.00000000e+00  -0.00000000e+00   0.00000000e+00  -0.00000000e+00   0.00000000e+00  -9.52808839e-12  -2.49757923e-11   4.79079841e-04   1.75086025e-04 
  4.67676417e+08   1.95328444e-01   1.69822155e-03  -0.00000000e+00   0.00000000e+00  -0.00000000e+00   0.00000000e+00  -0.00000000e+00   0.00000000e+00  -9.37280288e-12  -2.12307984e-11   5.16769884e-04   4.23193524e-05 
  4.79668120e+08   1.86019003e-01  -5.04631028e-02  -0.00000000e+00   0.00000000e+00  -0.00000000e+00   0.00000000e+00  -0.00000000e+00   0.00000000e+00  -7.89289727e-12  -1.75592804e-11   5.02399751e-04  -9.66217340e-05 
  4.91659823e+08   1.60540238e-01  -9.25085545e-02  -0.00000000e+00   0.00000000e+00  -0.00000000e+00   0.00000000e+00  -0.00000000e+00   0.00000000e+00  -5.26093188e-12  -1.45705080e-11   4.43702331e-04  -2.12131592e-04 
  5.03651526e+08   1.28878132e-01  -1.20046459e-01  -0.00000000e+00   0.00000000e+00  -0.00000000e+00   0.00000000e+00  -0.00000000e+00   0.00000000e+00  -1.79503753e-12  -1.23961223e-11   3.66059510e-04  -2.90759315e-04 
  5.15643229e+08   9.95331109e-02  -1.37398571e-01  -0.00000000e+00   0.00000000e+00  -0.00000000e+00   0.00000000e+00  -0.00000000e+00   0.00000000e+00   2.19264038e-12  -1.22363604e-11   2.92672543e-04  -3.42235726e-04 
  5.27634932e+08   7.33241588e-02  -1.52573332e-01  -0.00000000e+00   0.00000000e+00  -0.00000000e+00   0.00000000e+00  -0.00000000e+00   0.00000000e+00   5.24342635e-12  -1.33622106e-11   2.27304787e-04  -3.87544453e-04 
  5.39626635e+08   4.39621136e-02  -1.69332936e-01  -0.00000000e+00   0.00000000e+00  -0.00000000e+00   0.00000000e+00  -0.00000000e+00   0.00000000e+00   6.88335023e-12  -1.52301817e-11   1.54128269e-04  -4.37993847e-04 
  5.51618338e+08   4.89686243e-03  -1.83197483e-01  -0.00000000e+00   0.00000000e+00  -0.00000000e+00   0.00000000e+00  -0.00000000e+00   0.00000000e+00   6.64138015e-12  -1.69648982e-11   5.48291391e-05  -4.83284064e-04 
  5.63610041e+08  -4.35560606e-02  -1.84843555e-01  -0.00000000e+00   0.00000000e+00  -0.00000000e+00   0.00000000e+00  -0.00000000e+00   0.00000000e+00   5.30401114e-12  -1.72157445e-11  -7.19657983e-05  -4.98839305e-04 
  5.75601744e+08  -9.29505229e-02  -1.67820588e-01  -0.00000000e+00   0.00000000e+00  -0.00000000e+00   0.00000000e+00  -0.00000000e+00   0.00000000e+00   4.25342270e-12  -1.63086836e-11  -2.05639910e-04  -4.65757650e-04 
  5.87593447e+08  -1.32136509e-01  -1.34026885e-01  -0.00000000e+00   0.00000000e+00  -0.00000000e+00   0.00000000e+00  -0.00000000e+00   0.00000000e+00   3.83568611e-12  -1.42709906e-11  -3.16541264e-04  -3.86377476e-04 
  5.99585150e+08  -1.54802486e-01  -9.27001834e-02   0.00000000e+00  -0.00000000e+00   0.00000000e+00  -0.00000000e+00   0.00000000e+00  -0.00000000e+00   4.15054753e-12  -1.21204635e-11  -3.85962107e-04  -2.83412432e-04 
  6.11576853e+08  -1.63257405e-01  -5.38769476e-02   0.00000000e+00  -0.00000000e+00   0.00000000e+00  -0.00000000e+00   0.00000000e+00  -0.00000000e+00   4.90974102e-12  -1.00665483e-11  -4.17597563e-04  -1.83730139e-04 
  6.23568556e+08  -1.65517673e-01  -2.13872809e-02   0.00000000e+00  -0.00000000e+00   0.00000000e+00  -0.00000000e+00   0.00000000e+00  -0.00000000e+00   6.55254583e-12  -8.24383704e-12  -4.31614142e-04  -9.92930582e-05 
  6.35560259e+08  -1.67847872e-01   8.92867614e-03   0.00000000e+00  -0.00000000e+00   0.00000000e+00  -0.00000000e+00   0.00000000e+00  -0.00000000e+00   8.41585916e-12  -6.77546864e-12  -4.45561833e-04  -2.06743571e-05 
  6.47551962e+08  -1.69019520e-01   4.40555699e-02   0.00000000e+00  -0.00000000e+00   0.00000000e+00  -0.00000000e+00   0.00000000e+00  -0.00000000e+00   1.03157404e-11  -5.83770055e-12  -4.58046154e-04   7.08982552e-05 
  6.59543665e+08  -1.61387935e-01   8.61866847e-02   0.00000000e+00  -0.00000000e+00   0.00000000e+00  -0.00000000e+00   0.00000000e+00  -0.00000000e+00   1.22041188e-11  -5.44230850e-12  -4.49559710e-04   1.83319760e-04 
  6.71535368e+08  -1.37689859e-01   1.29361272e-01   0.00000000e+00  -0.00000000e+00   0.00000000e+00  -0.00000000e+00   0.00000000e+00  -0.00000000e+00   1.37993028e-11  -5.64351300e-12  -3.99395591e-04   3.02996312e-04 
  6.83527071e+08  -9.76348594e-02   1.62939250e-01   0.00000000e+00  -0.00000000e+00   0.00000000e+00  -0.00000000e+00   0.00000000e+00  -0.00000000e+00   1.54150078e-11  -5.87405558e-12  -3.03813635e-04   4.02182312e-04 
  6.95518774e+08  -4.91431467e-02   1.78886667e-01   0.00000000e+00  -0.00000000e+00   0.00000000e+00  -0.00000000e+00   0.00000000e+00  -0.00000000e+00   1.66922708e-11  -6.37718264e-12  -1.81269614e-04   4.57663758e-04 
  7.07510477e+08  -3.35860881e-03   1.77311838e-01   0.00000000e+00  -0.00000000e+00   0.00000000e+00  -0.00000000e+00   0.00000000e+00  -0.00000000e+00   1.78396638e-11  -7.59191147e-12  -6.09341732e-05   4.66606056e-04 
  7.19502180e+08   3.29764448e-02   1.65900201e-01   0.00000000e+00  -0.00000000e+00   0.00000000e+00  -0.00000000e+00   0.00000000e+00  -0.00000000e+00   1.87747231e-11  -9.12379894e-12   3.73837574e-05   4.47248982e-04 
  7.31493883e+08   6.16622269e-02   1.53246328e-01   0.00000000e+00  -0.00000000e+00   0.00000000e+00  -0.00000000e+00   0.00000000e+00  -0.00000000e+00   1.86971289e-11  -1.13440594e-11   1.15987925e-04   4.22673300e-04 
  7.43485586e+08   8.98760483e-02   1.41578898e-01   0.00000000e+00  -0.00000000e+00   0.00000000e+00  -0.00000000e+00   0.00000000e+00  -0.00000000e+00   1.75355477e-11  -1.40501057e-11   1.93135740e-04   4.00850986e-04 
  7.55477289e+08   1.22404322e-01   1.25328943e-01   0.00000000e+00  -0.00000000e+00   0.00000000e+00  -0.00000000e+00   0.00000000e+00  -0.00000000e+00   1.46682336e-11  -1.64552504e-11   2.83172092e-04   3.68607347e-04 
  7.67468992e+08   1.56163529e-01   9.66546908e-02   0.00000000e+00  -0.00000000e+00   0.00000000e+00  -0.00000000e+00   0.00000000e+00  -0.00000000e+00   9.91183004e-12  -1.75196732e-11   3.80527024e-04   3.04375048e-04 
  7.79460695e+08   1.81483567e-01   5.30398563e-02   0.00000000e+00  -0.00000000e+00   0.00000000e+00  -0.00000000e+00   0.00000000e+00  -0.00000000e+00   4.96840243e-12  -1.64467676e-11   4.60743060e-04   1.98442591e-04 
  7.91452398e+08   1.89036638e-01   8.28350487e-04   0.00000000e+00  -0.00000000e+00   0.00000000e+00  -0.00000000e+00   0.00000000e+00  -0.00000000e+00   5.15059783e-13  -1.31206903e-11   4.97415778e-04   6.43397943e-05 
  8.03444101e+08   1.76990107e-01  -4.82722893e-02   0.00000000e+00  -0.00000000e+00   0.00000000e+00  -0.00000000e+00   0.00000000e+00  -0.00000000e+00  -2.32299791e-12  -8.66157059e-12   4.81971394e-04  -6.79706864e-05 
  8.15435804e+08   1.52478993e-01  -8.52404311e-02   0.00000000e+00  -0.00000000e+00   0.00000000e+00  -0.00000000e+00   0.00000000e+00  -0.00000000e+00  -3.19904151e-12  -4.04669787e-12   4.30123095e-04  -1.72635831e-04 
  8.27427507e+08   1.25808015e-01  -1.09717779e-01   0.00000000e+00  -0.00000000e+00   0.00000000e+00  -0.00000000e+00   0.00000000e+00  -0.00000000e+00  -2.77275078e-12  -4.90213393e-13   3.68700072e-04  -2.45381059e-04 
  8.39419210e+08   1.02255762e-01  -1.28665730e-01   0.00000000e+00  -0.00000000e+00   0.00000000e+00  -0.00000000e+00   0.00000000e+00  -0.00000000e+00  -2.17030343e-12   2.07848886e-12   3.13831959e-04  -3.02726199e-04 
  8.51410913e+08   7.85638168e-02  -1.48969844e-01   0.00000000e+00  -0.00000000e+00   0.00000000e+00  -0.00000000e+00   0.00000000e+00  -0.00000000e+00  -1.90649905e-12   3.81271490e-12   2.59297987e-04  -3.63897154e-04 
  8.63402616e+08   4.69381288e-02  -1.70418039e-01   0.00000000e+00  -0.00000000e+00   0.00000000e+00  -0.00000000e+00   0.00000000e+00  -0.00000000e+00  -2.06091849e-12   5.63469627e-12   1.84555378e-04  -4.31132474e-04 
  8.75394319e+08   3.11108097e-03  -1.84952751e-01   0.00000000e+00  -0.00000000e+00   0.00000000e+00  -0.00000000e+00   0.00000000e+00  -0.00000000e+00  -2.39100883e-12   8.10500278e-12   7.54864159e-05  -4.84924851e-04 
  8.87386022e+08  -4.83599268e-02  -1.82927579e-01   0.00000000e+00  -0.00000000e+00   0.00000000e+00  -0.00000000e+00   0.00000000e+00  -0.00000000e+00  -2.12739483e-12   1.07038562e-11  -5.95637903e-05  -4.98446578e-04 
  8.99377725e+08  -9.62324217e-02  -1.61145851e-01   0.00000000e+00   0.00000000e+00   0.00000000e+00   0.00000000e+00   0.00000000e+00   0.00000000e+00  -9.71909619e-13   1.38115968e-11  -1.92498628e-04  -4.59251663e-04 
  9.11369428e+08  -1.30395159e-01  -1.25719398e-01   0.00000000e+00   0.00000000e+00   0.00000000e+00   0.00000000e+00   0.00000000e+00   0.00000000e+00   1.09557730e-12   1.57964856e-11  -2.94753787e-04  -3.79540375e-04 
  9.23361131e+08  -1.48626655e-01  -8.74540433e-02   0.00000000e+00   0.00000000e+00   0.00000000e+00   0.00000000e+00   0.00000000e+00   0.00000000e+00   3.74936974e-12   1.70239153e-11  -3.56582954e-04  -2.86651193e-04 
  9.35352834e+08  -1.56879768e-01  -5.38793243e-02   0.00000000e+00   0.00000000e+00   0.00000000e+00   0.00000000e+00   0.00000000e+00   0.00000000e+00   6.51858385e-12   1.71273551e-11  -3.90754256e-04  -2.02429233e-04 
  9.47344537e+08  -1.63160622e-01  -2.43601203e-02   0.00000000e+00   0.00000000e+00   0.00000000e+00   0.00000000e+00   0.00000000e+00   0.00000000e+00   9.02706122e-12   1.64622361e-11  -4.18477197e-04  -1.28202228e-04 
  9.59336240e+08  -1.69999912e-01   7.81053770e-03   0.00000000e+00   0.00000000e+00   0.00000000e+00   0.00000000e+00   0.00000000e+00   0.00000000e+00   1.15632443e-11   1.50506569e-11  -4.49011161e-04  -4.73509026e-05 
  9.71327943e+08  -1.71906516e-01   4.79560457e-02   0.00000000e+00   0.00000000e+00   0.00000000e+00   0.00000000e+00   0.00000000e+00   0.00000000e+00   1.36144811e-11   1.20349147e-11  -4.70137107e-04   5.62886962e-05 
  9.83319646e+08  -1.60178736e-01   9.37758386e-02   0.00000000e+00   0.00000000e+00   0.00000000e+00   0.00000000e+00   0.00000000e+00   0.00000000e+00   1.46215557e-11   8.07259901e-12  -4.58246213e-04   1.80297648e-04 
  9.95311349e+08  -1.30653352e-01   1.35886103e-01   0.00000000e+00   0.00000000e+00   0.00000000e+00   0.00000000e+00   0.00000000e+00   0.00000000e+00   1.40189717e-11   3.36367696e-12  -3.98655102e-04   3.02003871e-04 
  1.00730305e+09  -8.75733122e-02   1.64215878e-01   0.00000000e+00   0.00000000e+00   0.00000000e+00   0.00000000e+00   0.00000000e+00   0.00000000e+00   1.11101735e-11  -1.38671778e-12  -2.98244704e-04   3.93514783e-04 
  1.01929476e+09  -4.09943499e-02   1.74695179e-01   0.00000000e+00   0.00000000e+00   0.00000000e+00   0.00000000e+00   0.00000000e+00   0.00000000e+00   6.47001940e-12  -4.55624687e-12  -1.81450654e-04   4.40145232e-04 
  1.03128646e+09  -9.04097760e-05   1.71426967e-01   0.00000000e+00   0.00000000e+00   0.00000000e+00   0.00000000e+00   0.00000000e+00   0.00000000e+00   1.56897141e-12  -5.37734917e-12  -7.37944065e-05   4.48792824e-04 
  1.04327816e+09   3.27832475e-02   1.62767559e-01   0.00000000e+00   0.00000000e+00   0.00000000e+00   0.00000000e+00   0.00000000e+00   0.00000000e+00  -2.40243307e-12  -4.94436913e-12   1.51534387e-05   4.40264383e-04 
